     500.0000000000000000   1948501308861100.7500000000000000
     501.0008340283569623   2105431181836680.0000000000000000
     502.0016680567139247   2296110486857186.5000000000000000
     503.0025020850708870   2530825456036582.0000000000000000
     504.0033361134278493   2823657621851183.0000000000000000
     505.0041701417848117   3193856509241768.5000000000000000
     506.0050041701417740   3667320483343464.5000000000000000
     507.0058381984987363   4277297895488655.0000000000000000
     508.0066722268556987   5061533155468566.0000000000000000
     509.0075062552126610   6048787818891105.0000000000000000
     510.0083402835696234   7221286240757088.0000000000000000
     511.0091743119265857   8443532914564142.0000000000000000
     512.0100083402835480   9403239388478102.0000000000000000
     513.0108423686405104   9716808031959608.0000000000000000
     514.0116763969974727   9244647132113078.0000000000000000
     515.0125104253544350   8238585841984987.0000000000000000
     516.0133444537113974   7087775316447564.0000000000000000
     517.0141784820683597   6048832849977155.0000000000000000
     518.0150125104253220   5211440536043424.0000000000000000
     519.0158465387822844   4572997591139235.0000000000000000
     520.0166805671392467   4099862023999482.5000000000000000
     521.0175145954962090   3755566139128993.0000000000000000
     522.0183486238531714   3509792366366778.0000000000000000
     523.0191826522101337   3339615359794777.0000000000000000
     524.0200166805670960   3228393708234484.5000000000000000
     525.0208507089240584   3164292294787164.0000000000000000
     526.0216847372810207   3139021602574861.0000000000000000
     527.0225187656379831   3146894442422646.5000000000000000
     528.0233527939949454   3184159464833778.5000000000000000
     529.0241868223519077   3248546048440245.0000000000000000
     530.0250208507088701   3338964025085899.0000000000000000
     531.0258548790659461   3455316858985544.5000000000000000
     532.0266889074227947   3598400539620376.5000000000000000
     533.0275229357798707   3769871196249062.5000000000000000
     534.0283569641367194   3972272791954507.0000000000000000
     535.0291909924937954   4209123109026951.5000000000000000
     536.0300250208507578   4485062505623855.5000000000000000
     537.0308590492077201   4806076487467524.0000000000000000
     538.0316930775646824   5179810935137048.0000000000000000
     539.0325271059216448   5616008989471316.0000000000000000
     540.0333611342786071   6127112638108055.0000000000000000
     541.0341951626355694   6729092108517606.0000000000000000
     542.0350291909925318   7442595355767468.0000000000000000
     543.0358632193494941   8294552670366621.0000000000000000
     544.0366972477064564   9320433761091364.0000000000000000
     545.0375312760634188   10567443786447216.0000000000000000
     546.0383653044203811   12099066007805948.0000000000000000
     547.0391993327773434   14001504129225484.0000000000000000
     548.0400333611343058   16392690565753864.0000000000000000
     549.0408673894912681   19434399931246880.0000000000000000
     550.0417014178482304   23346995764010852.0000000000000000
     551.0425354462051928   28422627148938284.0000000000000000
     552.0433694745621551   35021648012019608.0000000000000000
     553.0442035029191175   43508883022244736.0000000000000000
     554.0450375312760798   54030352695232376.0000000000000000
     555.0458715596330421   65982969205092304.0000000000000000
     556.0467055879900045   77233232302275088.0000000000000000
     557.0475396163469668   84035276622204512.0000000000000000
     558.0483736447039291   83212154153827392.0000000000000000
     559.0492076730608915   75201051399568752.0000000000000000
     560.0500417014178538   63585901049057312.0000000000000000
     561.0508757297748161   51868289494506728.0000000000000000
     562.0517097581317785   41808333111929744.0000000000000000
     563.0525437864887408   33791754512397596.0000000000000000
     564.0533778148457031   27595780370644568.0000000000000000
     565.0542118432026655   22845751110313000.0000000000000000
     566.0550458715596278   19193541646224588.0000000000000000
     567.0558798999165901   16362882062289074.0000000000000000
     568.0567139282735525   14147177856640324.0000000000000000
     569.0575479566305148   12395278409359300.0000000000000000
     570.0583819849874772   10997127880452944.0000000000000000
     571.0592160133444395   9872321219701400.0000000000000000
     572.0600500417014018   8961692256506302.0000000000000000
     573.0608840700583642   8221327433413914.0000000000000000
     574.0617180984153265   7618353620583658.0000000000000000
     575.0625521267722888   7127977984942981.0000000000000000
     576.0633861551292512   6731400479755455.0000000000000000
     577.0642201834862135   6414334060426235.0000000000000000
     578.0650542118431758   6165950809578032.0000000000000000
     579.0658882402001382   5978129982593400.0000000000000000
     580.0667222685571005   5844923645666284.0000000000000000
     581.0675562969140628   5762182783193099.0000000000000000
     582.0683903252710252   5727305636840828.0000000000000000
     583.0692243536279875   5739083487462143.0000000000000000
     584.0700583819849498   5797629106047983.0000000000000000
     585.0708924103419122   5904381113603440.0000000000000000
     586.0717264386988745   6062184600066495.0000000000000000
     587.0725604670558369   6275455505926303.0000000000000000
     588.0733944954127992   6550444420794242.0000000000000000
     589.0742285237697615   6895625720872387.0000000000000000
     590.0750625521267239   7322251825577970.0000000000000000
     591.0758965804836862   7845131871475677.0000000000000000
     592.0767306088407622   8483722260780875.0000000000000000
     593.0775646371976109   9263657616177298.0000000000000000
     594.0783986655546869   10218910538713748.0000000000000000
     595.0792326939115355   11394854418392428.0000000000000000
     596.0800667222686116   12852621396324432.0000000000000000
     597.0809007506254602   14675292633314598.0000000000000000
     598.0817347789825362   16976584149135280.0000000000000000
     599.0825688073393849   19912621352419200.0000000000000000
     600.0834028356964609   23696570378145420.0000000000000000
     601.0842368640534232   28612720840225084.0000000000000000
     602.0850708924103856   35016958429338760.0000000000000000
     603.0859049207673479   43285367832268560.0000000000000000
     604.0867389491243102   53620099736852168.0000000000000000
     605.0875729774812726   65564500024250824.0000000000000000
     606.0884070058382349   77221662458962576.0000000000000000
     607.0892410341951972   84969699523157472.0000000000000000
     608.0900750625521596   85312234670156032.0000000000000000
     609.0909090909091219   78101047633352368.0000000000000000
     610.0917431192660842   66697253972298688.0000000000000000
     611.0925771476230466   54812073988663944.0000000000000000
     612.0934111759800089   44476918521815624.0000000000000000
     613.0942452043369713   36230844747753976.0000000000000000
     614.0950792326939336   29908218661527120.0000000000000000
     615.0959132610508959   25149914972848064.0000000000000000
     616.0967472894078583   21613953372889196.0000000000000000
     617.0975813177648206   19033947036575572.0000000000000000
     618.0984153461217829   17219349318080808.0000000000000000
     619.0992493744787453   16034171474128686.0000000000000000
     620.1000834028357076   15359509219600962.0000000000000000
     621.1009174311926699   15034521409561450.0000000000000000
     622.1017514595496323   14796623480197332.0000000000000000
     623.1025854879065946   14317764754866022.0000000000000000
     624.1034195162635569   13409757056791950.0000000000000000
     625.1042535446205193   12179478285043326.0000000000000000
     626.1050875729774816   10888451359935890.0000000000000000
     627.1059216013344439   9732867057970080.0000000000000000
     628.1067556296914063   8786509485549835.0000000000000000
     629.1075896580483686   8048027182437762.0000000000000000
     630.1084236864053310   7489307922570017.0000000000000000
     631.1092577147622933   7079592109807742.0000000000000000
     632.1100917431192556   6793669358075143.0000000000000000
     633.1109257714762180   6613359219185873.0000000000000000
     634.1117597998331803   6526892082317078.0000000000000000
     635.1125938281901426   6527964871199696.0000000000000000
     636.1134278565471050   6615038648551890.0000000000000000
     637.1142618849040673   6791022190887676.0000000000000000
     638.1150959132610296   7063371818817981.0000000000000000
     639.1159299416179920   7444636721111931.0000000000000000
     640.1167639699749543   7953521017345065.0000000000000000
     641.1175979983319166   8616598919967262.0000000000000000
     642.1184320266888790   9470904900835834.0000000000000000
     643.1192660550458413   10567724832838278.0000000000000000
     644.1201000834028036   11978015469681142.0000000000000000
     645.1209341117597660   13799888830745832.0000000000000000
     646.1217681401167283   16168222305929366.0000000000000000
     647.1226021684736907   19264840258163176.0000000000000000
     648.1234361968306530   23322582614026440.0000000000000000
     649.1242702251876153   28602660941465392.0000000000000000
     650.1251042535445777   35293536416105280.0000000000000000
     651.1259382819015400   43235507050486536.0000000000000000
     652.1267723102585023   51414137981297424.0000000000000000
     653.1276063386155784   57583503679744232.0000000000000000
     654.1284403669724270   59107554061847104.0000000000000000
     655.1292743953295030   55184251243531168.0000000000000000
     656.1301084236863517   47695314198324928.0000000000000000
     657.1309424520434277   39328103480548752.0000000000000000
     658.1317764804002763   31785988826831788.0000000000000000
     659.1326105087573524   25633772611009044.0000000000000000
     660.1334445371142010   20827210155388352.0000000000000000
     661.1342785654712770   17123988185652774.0000000000000000
     662.1351125938281257   14268484327690022.0000000000000000
     663.1359466221852017   12048965321950776.0000000000000000
     664.1367806505420504   10304374866251286.0000000000000000
     665.1376146788991264   8916110340866975.0000000000000000
     666.1384487072559750   7797652516682066.0000000000000000
     667.1392827356130510   6885784828561889.0000000000000000
     668.1401167639698997   6133988148015835.0000000000000000
     669.1409507923269757   5507694826206168.0000000000000000
     670.1417848206839381   4980936410315030.0000000000000000
     671.1426188490409004   4533984032206798.0000000000000000
     672.1434528773978627   4151681768156111.0000000000000000
     673.1442869057548251   3822261051619389.5000000000000000
     674.1451209341117874   3536489659860768.0000000000000000
     675.1459549624687497   3287054780376852.5000000000000000
     676.1467889908257121   3068111180773367.5000000000000000
     677.1476230191826744   2874946911906168.0000000000000000
     678.1484570475396367   2703733500797488.0000000000000000
     679.1492910758965991   2551337485265362.5000000000000000
     680.1501251042535614   2415176926110636.5000000000000000
     681.1509591326105237   2293111220343261.0000000000000000
     682.1517931609674861   2183355806488116.7500000000000000
     683.1526271893244484   2084415651757320.2500000000000000
     684.1534612176814107   1995033043477235.7500000000000000
     685.1542952460383731   1914146378010964.0000000000000000
     686.1551292743953354   1840857488686610.5000000000000000
     687.1559633027522977   1774405675567942.0000000000000000
     688.1567973311092601   1714147060727601.7500000000000000
     689.1576313594662224   1659538239775148.2500000000000000
     690.1584653878231848   1610123467269850.0000000000000000
     691.1592994161801471   1565524824975358.7500000000000000
     692.1601334445371094   1525434996613956.7500000000000000
     693.1609674728940718   1489612426368747.2500000000000000
     694.1618015012510341   1457878784884102.7500000000000000
     695.1626355296079964   1430118820254193.7500000000000000
     696.1634695579649588   1406282849069935.7500000000000000
     697.1643035863219211   1386392365367315.2500000000000000
     698.1651376146788834   1370549542743711.5000000000000000
     699.1659716430358458   1358951819261816.7500000000000000
     700.1668056713928081   1351913347624478.0000000000000000
     701.1676396997497704   1349895953490922.0000000000000000
     702.1684737281067328   1353553496662096.2500000000000000
     703.1693077564636951   1363795329719995.7500000000000000
     704.1701417848206574   1381877043504108.2500000000000000
     705.1709758131776198   1409529844430340.2500000000000000
     706.1718098415345821   1449142952946544.5000000000000000
     707.1726438698915445   1504013181087500.0000000000000000
     708.1734778982485068   1578662133201981.0000000000000000
     709.1743119266054691   1679164704678162.0000000000000000
     710.1751459549624315   1813254512324044.0000000000000000
     711.1759799833193938   1989493992883905.7500000000000000
     712.1768140116763561   2213745483778834.0000000000000000
     713.1776480400333185   2479780379302508.5000000000000000
     714.1784820683902808   2752577090110969.5000000000000000
     715.1793160967472431   2957522119771330.0000000000000000
     716.1801501251043192   3011391595116615.5000000000000000
     717.1809841534611678   2894797809051776.0000000000000000
     718.1818181818182438   2673306839109927.0000000000000000
     719.1826522101750925   2433479711979725.5000000000000000
     720.1834862385321685   2228376191114639.2500000000000000
     721.1843202668890171   2075370828149860.0000000000000000
     722.1851542952460932   1973550732326455.0000000000000000
     723.1859883236029418   1916534744407758.7500000000000000
     724.1868223519600178   1898160955496504.2500000000000000
     725.1876563803168665   1914306208142566.7500000000000000
     726.1884904086739425   1963244048884911.2500000000000000
     727.1893244370307912   2045639821912920.7500000000000000
     728.1901584653878672   2164602736439521.2500000000000000
     729.1909924937447158   2325953913842070.0000000000000000
     730.1918265221017919   2538794491556693.5000000000000000
     731.1926605504586405   2816451095223061.0000000000000000
     732.1934945788157165   3177875223776908.0000000000000000
     733.1943286071726789   3649506512316533.0000000000000000
     734.1951626355296412   4267309206381481.5000000000000000
     735.1959966638866035   5077718438114014.0000000000000000
     736.1968306922435659   6133565077490200.0000000000000000
     737.1976647206005282   7474977768198860.0000000000000000
     738.1984987489574905   9076254692944152.0000000000000000
     739.1993327773144529   10745274232758142.0000000000000000
     740.2001668056714152   12040290211215984.0000000000000000
     741.2010008340283775   12419542736855650.0000000000000000
     742.2018348623853399   11686664667642056.0000000000000000
     743.2026688907423022   10197681929027516.0000000000000000
     744.2035029190992645   8501495921052901.0000000000000000
     745.2043369474562269   6959429362651723.0000000000000000
     746.2051709758131892   5697215204609476.0000000000000000
     747.2060050041701516   4710462204832431.0000000000000000
     748.2068390325271139   3951011654240005.5000000000000000
     749.2076730608840762   3366685388447546.5000000000000000
     750.2085070892410386   2913909712593368.0000000000000000
     751.2093411175980009   2559440679821359.5000000000000000
     752.2101751459549632   2278776956783271.5000000000000000
     753.2110091743119256   2054050301061266.7500000000000000
     754.2118432026688879   1872218154888344.7500000000000000
     755.2126772310258502   1723698227558448.7500000000000000
     756.2135112593828126   1601385896137153.5000000000000000
     757.2143452877397749   1499959975112322.0000000000000000
     758.2151793160967372   1415394326138264.7500000000000000
     759.2160133444536996   1344613314464404.5000000000000000
     760.2168473728106619   1285247193273892.2500000000000000
     761.2176814011676242   1235457048186319.7500000000000000
     762.2185154295245866   1193808482854137.0000000000000000
     763.2193494578815489   1159179782727491.5000000000000000
     764.2201834862385113   1130694755172472.0000000000000000
     765.2210175145954736   1107673480688670.3750000000000000
     766.2218515429524359   1089596290407810.1250000000000000
     767.2226855713093983   1076077727593456.1250000000000000
     768.2235195996663606   1066848269928045.2500000000000000
     769.2243536280233229   1061742330297988.8750000000000000
     770.2251876563802853   1060691617164903.0000000000000000
     771.2260216847372476   1063723394149645.2500000000000000
     772.2268557130942099   1070963588925621.5000000000000000
     773.2276897414512860   1082645113863309.6250000000000000
     774.2285237698081346   1099122226132265.2500000000000000
     775.2293577981652106   1120892333461789.1250000000000000
     776.2301918265220593   1148627422904334.7500000000000000
     777.2310258548791353   1183218365298571.2500000000000000
     778.2318598832359839   1225836889143743.2500000000000000
     779.2326939115930600   1278022258658757.2500000000000000
     780.2335279399499086   1341802964007631.2500000000000000
     781.2343619683069846   1419868475888899.7500000000000000
     782.2351959966638333   1515812810889013.7500000000000000
     783.2360300250209093   1634480491941981.7500000000000000
     784.2368640533777580   1782455263770323.5000000000000000
     785.2376980817348340   1968736636884285.2500000000000000
     786.2385321100916826   2205628479806349.0000000000000000
     787.2393661384487586   2509756099442385.0000000000000000
     788.2402001668056073   2902765653107165.0000000000000000
     789.2410341951626833   3410233761523100.0000000000000000
     790.2418682235195320   4054862271171701.0000000000000000
     791.2427022518766080   4835840019705139.0000000000000000
     792.2435362802334566   5685764305550110.0000000000000000
     793.2443703085905327   6423106081093062.0000000000000000
     794.2452043369473813   6789241481213445.0000000000000000
     795.2460383653044573   6640992810695598.0000000000000000
     796.2468723936613060   6101305781716822.0000000000000000
     797.2477064220183820   5435951489409883.0000000000000000
     798.2485404503752306   4850393088673121.0000000000000000
     799.2493744787323067   4436045242382292.0000000000000000
     800.2502085070891553   4215124264968312.5000000000000000
     801.2510425354462313   4187259735057141.5000000000000000
     802.2518765638030800   4352435767165174.5000000000000000
     803.2527105921601560   4715023289888246.0000000000000000
     804.2535446205171183   5270911174040245.0000000000000000
     805.2543786488740807   5971699560113022.0000000000000000
     806.2552126772310430   6668834169536883.0000000000000000
     807.2560467055880054   7098139922816709.0000000000000000
     808.2568807339449677   7018172677130905.0000000000000000
     809.2577147623019300   6431349822321272.0000000000000000
     810.2585487906588924   5577169327880745.0000000000000000
     811.2593828190158547   4707814109319468.0000000000000000
     812.2602168473728170   3956113487586384.5000000000000000
     813.2610508757297794   3353891445845350.0000000000000000
     814.2618849040867417   2886528796239065.5000000000000000
     815.2627189324437040   2527121542125675.5000000000000000
     816.2635529608006664   2250211106623909.2500000000000000
     817.2643869891576287   2035429996064114.2500000000000000
     818.2652210175145910   1867472243436830.5000000000000000
     819.2660550458715534   1735096527732255.2500000000000000
     820.2668890742285157   1630088402040992.7500000000000000
     821.2677231025854780   1546423890219240.5000000000000000
     822.2685571309424404   1479651474377490.7500000000000000
     823.2693911592994027   1426450762743077.7500000000000000
     824.2702251876563651   1384320988479698.0000000000000000
     825.2710592160133274   1351361325093318.7500000000000000
     826.2718932443702897   1326115220889927.5000000000000000
     827.2727272727272521   1307459265334181.2500000000000000
     828.2735613010842144   1294523153460639.0000000000000000
     829.2743953294411767   1286631528963443.7500000000000000
     830.2752293577981391   1283261366619587.0000000000000000
     831.2760633861551014   1284010511645762.5000000000000000
     832.2768974145120637   1288574325062094.7500000000000000
     833.2777314428690261   1296728294955350.0000000000000000
     834.2785654712259884   1308315101594673.5000000000000000
     835.2793994995829507   1323235061738218.0000000000000000
     836.2802335279399131   1341439185634455.7500000000000000
     837.2810675562968754   1362924300353674.5000000000000000
     838.2819015846539514   1387729852992650.7500000000000000
     839.2827356130108001   1415936125958710.5000000000000000
     840.2835696413678761   1447663687100758.2500000000000000
     841.2844036697247248   1483073969200568.2500000000000000
     842.2852376980818008   1522370933023691.5000000000000000
     843.2860717264386494   1565803820883603.5000000000000000
     844.2869057547957254   1613671057636263.5000000000000000
     845.2877397831525741   1666325406815827.2500000000000000
     846.2885738115096501   1724180544735311.0000000000000000
     847.2894078398664988   1787719278499793.7500000000000000
     848.2902418682235748   1857503709267114.2500000000000000
     849.2910758965804234   1934187734944964.2500000000000000
     850.2919099249374995   2018532403499750.0000000000000000
     851.2927439532943481   2111424777950885.5000000000000000
     852.2935779816514241   2213901168755742.0000000000000000
     853.2944120100082728   2327175844791070.0000000000000000
     854.2952460383653488   2452676672819582.0000000000000000
     855.2960800667221974   2592089588342012.0000000000000000
     856.2969140950792735   2747414411994088.5000000000000000
     857.2977481234361221   2921035357610449.5000000000000000
     858.2985821517931981   3115810720385450.0000000000000000
     859.2994161801500468   3335187815955173.0000000000000000
     860.3002502085071228   3583351453131393.0000000000000000
     861.3010842368639715   3865417343209386.0000000000000000
     862.3019182652210475   4187686290660889.0000000000000000
     863.3027522935778961   4557981390561072.0000000000000000
     864.3035863219349721   4986099702243297.0000000000000000
     865.3044203502918208   5484423365019217.0000000000000000
     866.3052543786488968   6068754946794576.0000000000000000
     867.3060884070057455   6759471033163180.0000000000000000
     868.3069224353628215   7583131049373693.0000000000000000
     869.3077564637197838   8574740874033467.0000000000000000
     870.3085904920767462   9780959337041856.0000000000000000
     871.3094245204337085   11264652890540142.0000000000000000
     872.3102585487906708   13111333968401314.0000000000000000
     873.3110925771476332   15438083230118196.0000000000000000
     874.3119266055045955   18405285673994764.0000000000000000
     875.3127606338615578   22230098272746284.0000000000000000
     876.3135946622185202   27195799836230424.0000000000000000
     877.3144286905754825   33637651443476016.0000000000000000
     878.3152627189324448   41853435839613440.0000000000000000
     879.3160967472894072   51830747075783512.0000000000000000
     880.3169307756463695   62673459408172976.0000000000000000
     881.3177648040033318   71954983091459136.0000000000000000
     882.3185988323602942   76175067487625360.0000000000000000
     883.3194328607172565   73313207217557264.0000000000000000
     884.3202668890742189   64905282998856144.0000000000000000
     885.3211009174311812   54448340127351584.0000000000000000
     886.3219349457881435   44642088022000744.0000000000000000
     887.3227689741451059   36611446777222192.0000000000000000
     888.3236030025020682   30476602128042740.0000000000000000
     889.3244370308590305   25950856110426128.0000000000000000
     890.3252710592159929   22619126758360800.0000000000000000
     891.3261050875729552   20026292639353604.0000000000000000
     892.3269391159299175   17769752489525230.0000000000000000
     893.3277731442868799   15647832862111392.0000000000000000
     894.3286071726438422   13684050289384766.0000000000000000
     895.3294412010008045   11974267977230096.0000000000000000
     896.3302752293577669   10564526899144396.0000000000000000
     897.3311092577147292   9442840317838682.0000000000000000
     898.3319432860716915   8572130815831559.0000000000000000
     899.3327773144286539   7914031402255317.0000000000000000
     900.3336113427856162   7438693976039918.0000000000000000
     901.3344453711426922   7127390142271375.0000000000000000
     902.3352793994995409   6972714808847527.0000000000000000
     903.3361134278566169   6978307276191159.0000000000000000
     904.3369474562134656   7158036234826127.0000000000000000
     905.3377814845705416   7532481955919161.0000000000000000
     906.3386155129273902   8116827253596830.0000000000000000
     907.3394495412844662   8889101455217897.0000000000000000
     908.3402835696413149   9731634548946556.0000000000000000
     909.3411175979983909   10385380489697916.0000000000000000
     910.3419516263552396   10541983153260164.0000000000000000
     911.3427856547123156   10100318866511578.0000000000000000
     912.3436196830691642   9273981630179320.0000000000000000
     913.3444537114262403   8379030193559970.0000000000000000
     914.3452877397830889   7622374906884036.0000000000000000
     915.3461217681401649   7080232843001061.0000000000000000
     916.3469557964970136   6759768637002859.0000000000000000
     917.3477898248540896   6648275510372063.0000000000000000
     918.3486238532109383   6735578412784122.0000000000000000
     919.3494578815680143   7019670382173883.0000000000000000
     920.3502919099248629   7501578983485686.0000000000000000
     921.3511259382819389   8168833797084130.0000000000000000
     922.3519599666387876   8970006076590347.0000000000000000
     923.3527939949958636   9810089594798582.0000000000000000
     924.3536280233527123   10620894948184366.0000000000000000
     925.3544620517097883   11470522901795550.0000000000000000
     926.3552960800666369   12562696035501972.0000000000000000
     927.3561301084237130   14130134547715474.0000000000000000
     928.3569641367805616   16358257386861804.0000000000000000
     929.3577981651376376   19337261624708584.0000000000000000
     930.3586321934944863   22940371310593344.0000000000000000
     931.3594662218515623   26588479998615100.0000000000000000
     932.3603002502085246   29125251088449800.0000000000000000
     933.3611342785654870   29343918099306732.0000000000000000
     934.3619683069224493   27055646026982436.0000000000000000
     935.3628023352794116   23282733804023100.0000000000000000
     936.3636363636363740   19266163058554124.0000000000000000
     937.3644703919933363   15723715137239556.0000000000000000
     938.3653044203502986   12862578720289650.0000000000000000
     939.3661384487072610   10636890220312338.0000000000000000
     940.3669724770642233   8925860765997467.0000000000000000
     941.3678065054211856   7609487102358365.0000000000000000
     942.3686405337781480   6590431750479297.0000000000000000
     943.3694745621351103   5795481016401828.0000000000000000
     944.3703085904920727   5171269419934308.0000000000000000
     945.3711426188490350   4679458342516048.0000000000000000
     946.3719766472059973   4292814712106491.5000000000000000
     947.3728106755629597   3992376461307023.0000000000000000
     948.3736447039199220   3765548928590506.5000000000000000
     949.3744787322768843   3604930163880761.5000000000000000
     950.3753127606338467   3507679625582326.0000000000000000
     951.3761467889908090   3475210562309389.5000000000000000
     952.3769808173477713   3512769815949762.0000000000000000
     953.3778148457047337   3627812639347661.0000000000000000
     954.3786488740616960   3824606920466692.0000000000000000
     955.3794829024186583   4090596746770564.5000000000000000
     956.3803169307756207   4372813843511128.5000000000000000
     957.3811509591325830   4563879974909331.0000000000000000
     958.3819849874895453   4547817022262570.0000000000000000
     959.3828190158465077   4300781623563257.5000000000000000
     960.3836530442034700   3915494731274037.5000000000000000
     961.3844870725604324   3510181929124260.0000000000000000
     962.3853211009173947   3155400579692171.5000000000000000
     963.3861551292743570   2872926459465892.0000000000000000
     964.3869891576313194   2659938215896257.0000000000000000
     965.3878231859882817   2506126803912620.0000000000000000
     966.3886572143453577   2400502873629302.0000000000000000
     967.3894912427022064   2331967716585887.5000000000000000
     968.3903252710592824   2286927388974142.5000000000000000
     969.3911592994161310   2248142866713735.7500000000000000
     970.3919933277732071   2200653191386034.5000000000000000
     971.3928273561300557   2141816408052943.7500000000000000
     972.3936613844871317   2080946135949311.5000000000000000
     973.3944954128439804   2028654547324571.2500000000000000
     974.3953294412010564   1990414723005403.5000000000000000
     975.3961634695579050   1967266612376923.7500000000000000
     976.3969974979149811   1958321157631455.7500000000000000
     977.3978315262718297   1962346398886572.7500000000000000
     978.3986655546289057   1978409693624915.5000000000000000
     979.3994995829857544   2006058975250010.2500000000000000
     980.4003336113428304   2045346418931072.7500000000000000
     981.4011676396996791   2096825226721677.7500000000000000
     982.4020016680567551   2161568073839613.5000000000000000
     983.4028356964136037   2241226185202130.0000000000000000
     984.4036697247706797   2338141305479728.5000000000000000
     985.4045037531275284   2455525663995684.5000000000000000
     986.4053377814846044   2597732660475660.0000000000000000
     987.4061718098414531   2770651868460456.5000000000000000
     988.4070058381985291   2982274407994008.0000000000000000
     989.4078398665553777   3243482628550851.5000000000000000
     990.4086738949124538   3569100269374820.5000000000000000
     991.4095079232693024   3979131915856385.0000000000000000
     992.4103419516263784   4499746717857638.5000000000000000
     993.4111759799832271   5162482335512916.0000000000000000
     994.4120100083403031   5997499795411910.0000000000000000
     995.4128440366971518   7011910421560760.0000000000000000
     996.4136780650542278   8142172926214352.0000000000000000
     997.4145120934111901   9194990337847756.0000000000000000
     998.4153461217681524   9871808614602776.0000000000000000
     999.4161801501251148   9979918794143398.0000000000000000
    1000.4170141784820771   9639071142972302.0000000000000000
    1001.4178482068390394   9173001289036006.0000000000000000
    1002.4186822351960018   8860622840924440.0000000000000000
    1003.4195162635529641   8850781484589936.0000000000000000
    1004.4203502919099265   9209235044056068.0000000000000000
    1005.4211843202668888   9972524467965774.0000000000000000
    1006.4220183486238511   11161573738078840.0000000000000000
    1007.4228523769808135   12743309830599194.0000000000000000
    1008.4236864053377758   14532781334838752.0000000000000000
    1009.4245204336947381   16089781256119330.0000000000000000
    1010.4253544620517005   16822683078574162.0000000000000000
    1011.4261884904086628   16436812829395276.0000000000000000
    1012.4270225187656251   15242098703259908.0000000000000000
    1013.4278565471225875   13840827973522872.0000000000000000
    1014.4286905754795498   12682435676660754.0000000000000000
    1015.4295246038365121   11964624819721954.0000000000000000
    1016.4303586321934745   11740333575040956.0000000000000000
    1017.4311926605504368   12021322297403002.0000000000000000
    1018.4320266889073991   12829817399460292.0000000000000000
    1019.4328607172643615   14211529688040740.0000000000000000
    1020.4336947456213238   16215057470262882.0000000000000000
    1021.4345287739782862   18818066723194260.0000000000000000
    1022.4353628023352485   21771898985733872.0000000000000000
    1023.4361968306922108   24425247652367508.0000000000000000
    1024.4370308590491732   25841704346349220.0000000000000000
    1025.4378648874062492   25484138735469072.0000000000000000
    1026.4386989157630978   23783356386522580.0000000000000000
    1027.4395329441199465   21720254274176420.0000000000000000
    1028.4403669724770225   20083894387682224.0000000000000000
    1029.4412010008340985   19261138072370292.0000000000000000
    1030.4420350291909472   19391885246917608.0000000000000000
    1031.4428690575477958   20523400203454364.0000000000000000
    1032.4437030859048718   22642429734483108.0000000000000000
    1033.4445371142619479   25565196068224664.0000000000000000
    1034.4453711426187965   28699599002331452.0000000000000000
    1035.4462051709756452   30899984420539184.0000000000000000
    1036.4470391993327212   30942649820299076.0000000000000000
    1037.4478732276897972   28569278875210780.0000000000000000
    1038.4487072560466459   24733896245333900.0000000000000000
    1039.4495412844034945   20653434100658556.0000000000000000
    1040.4503753127605705   17048657294664858.0000000000000000
    1041.4512093411176465   14133210329565328.0000000000000000
    1042.4520433694744952   11864455811778220.0000000000000000
    1043.4528773978313438   10122381185310758.0000000000000000
    1044.4537114261884199   8786751523990643.0000000000000000
    1045.4545454545454959   7759772146746761.0000000000000000
    1046.4553794829025719   6967865509321691.0000000000000000
    1047.4562135112594206   6357506220175268.0000000000000000
    1048.4570475396162692   5890431523935547.0000000000000000
    1049.4578815679733452   5539725439821212.0000000000000000
    1050.4587155963304212   5286982606081829.0000000000000000
    1051.4595496246872699   5120405362693243.0000000000000000
    1052.4603836530441185   5033647827599141.0000000000000000
    1053.4612176814011946   5025270902633395.0000000000000000
    1054.4620517097582706   5098740458234570.0000000000000000
    1055.4628857381151192   5262966257705892.0000000000000000
    1056.4637197664719679   5533429668234211.0000000000000000
    1057.4645537948290439   5933952540988826.0000000000000000
    1058.4653878231861199   6499017231876658.0000000000000000
    1059.4662218515429686   7275968553316184.0000000000000000
    1060.4670558798998172   8324662235139742.0000000000000000
    1061.4678899082568932   9707553181792938.0000000000000000
    1062.4687239366139693   11453873323285192.0000000000000000
    1063.4695579649708179   13472362775288580.0000000000000000
    1064.4703919933276666   15416289461319520.0000000000000000
    1065.4712260216847426   16650126736341332.0000000000000000
    1066.4720600500418186   16595655321008906.0000000000000000
    1067.4728940783986673   15274817094773544.0000000000000000
    1068.4737281067555159   13285953129495010.0000000000000000
    1069.4745621351125919   11251636170568894.0000000000000000
    1070.4753961634696680   9499091638724188.0000000000000000
    1071.4762301918265166   8107936645792063.0000000000000000
    1072.4770642201833653   7044331880948906.0000000000000000
    1073.4778982485404413   6244480567566928.0000000000000000
    1074.4787322768975173   5648139978828631.0000000000000000
    1075.4795663052543659   5207550395688807.0000000000000000
    1076.4804003336112146   4887427579020794.0000000000000000
    1077.4812343619682906   4662617442075666.0000000000000000
    1078.4820683903253666   4515672120500427.0000000000000000
    1079.4829024186822153   4434943953271286.5000000000000000
    1080.4837364470390639   4413249479880083.0000000000000000
    1081.4845704753961400   4447017625239601.0000000000000000
    1082.4854045037532160   4535830775460562.0000000000000000
    1083.4862385321100646   4682299171036600.0000000000000000
    1084.4870725604669133   4892248889170735.0000000000000000
    1085.4879065888239893   5175245723027982.0000000000000000
    1086.4887406171810653   5545522953055770.0000000000000000
    1087.4895746455379140   6023432542827572.0000000000000000
    1088.4904086738947626   6637593146850448.0000000000000000
    1089.4912427022518386   7427940041755222.0000000000000000
    1090.4920767306089147   8449803846581813.0000000000000000
    1091.4929107589657633   9778689793381418.0000000000000000
    1092.4937447873226120   11513859933165244.0000000000000000
    1093.4945788156796880   13774316366367094.0000000000000000
    1094.4954128440367640   16669808284025884.0000000000000000
    1095.4962468723936126   20209799616940652.0000000000000000
    1096.4970809007504613   24106327461896500.0000000000000000
    1097.4979149291075373   27535240094445460.0000000000000000
    1098.4987489574646133   29251278730241416.0000000000000000
    1099.4995829858214620   28458525908861444.0000000000000000
    1100.5004170141783106   25619584250029220.0000000000000000
    1101.5012510425353867   21972189117163880.0000000000000000
    1102.5020850708924627   18514588445828608.0000000000000000
    1103.5029190992493113   15663068926601030.0000000000000000
    1104.5037531276061600   13433496682125046.0000000000000000
    1105.5045871559632360   11678861259150650.0000000000000000
    1106.5054211843203120   10251018005368984.0000000000000000
    1107.5062552126771607   9072476493251816.0000000000000000
    1108.5070892410342367   8116301886269998.0000000000000000
    1109.5079232693910853   7362046675046014.0000000000000000
    1110.5087572977481614   6781500397702945.0000000000000000
    1111.5095913261052374   6344028568389304.0000000000000000
    1112.5104253544620860   6022563533061847.0000000000000000
    1113.5112593828189347   5795773154549109.0000000000000000
    1114.5120934111760107   5647926254378390.0000000000000000
    1115.5129274395330867   5568023585253595.0000000000000000
    1116.5137614678899354   5548916942563882.0000000000000000
    1117.5145954962467840   5586646504007600.0000000000000000
    1118.5154295246038600   5680036836495003.0000000000000000
    1119.5162635529609361   5830541963599096.0000000000000000
    1120.5170975813177847   6042332627874507.0000000000000000
    1121.5179316096746334   6322640811543229.0000000000000000
    1122.5187656380317094   6682407818649910.0000000000000000
    1123.5195996663887854   7137321888419573.0000000000000000
    1124.5204336947456341   7709380530772514.0000000000000000
    1125.5212677231024827   8429168209497215.0000000000000000
    1126.5221017514595587   9339079421622936.0000000000000000
    1127.5229357798166347   10497659489644960.0000000000000000
    1128.5237698081734834   11984830755531650.0000000000000000
    1129.5246038365303320   13906321263760738.0000000000000000
    1130.5254378648874081   16391352739337196.0000000000000000
    1131.5262718932444841   19566953869770516.0000000000000000
    1132.5271059216013327   23471708005388008.0000000000000000
    1133.5279399499581814   27857462863419080.0000000000000000
    1134.5287739783152574   31915343689853344.0000000000000000
    1135.5296080066723334   34298588907327456.0000000000000000
    1136.5304420350291821   33965977199292896.0000000000000000
    1137.5312760633860307   31203900846498668.0000000000000000
    1138.5321100917431068   27324124175635248.0000000000000000
    1139.5329441201001828   23521326862127432.0000000000000000
    1140.5337781484570314   20367491528237716.0000000000000000
    1141.5346121768138801   17975517984728006.0000000000000000
    1142.5354462051709561   16264210066713930.0000000000000000
    1143.5362802335280321   15109014187252794.0000000000000000
    1144.5371142618848808   14399401498803340.0000000000000000
    1145.5379482902417294   14053059575382772.0000000000000000
    1146.5387823185988054   14015175367647638.0000000000000000
    1147.5396163469558815   14254339067409678.0000000000000000
    1148.5404503753127301   14758966350598944.0000000000000000
    1149.5412844036695788   15535322307518692.0000000000000000
    1150.5421184320266548   16607388205491124.0000000000000000
    1151.5429524603837308   18018695796001540.0000000000000000
    1152.5437864887405794   19836394407149376.0000000000000000
    1153.5446205170974281   22158040797996340.0000000000000000
    1154.5454545454545041   25121795038538136.0000000000000000
    1155.5462885738115801   28920614092117400.0000000000000000
    1156.5471226021684288   33819907583209628.0000000000000000
    1157.5479566305252774   40173837463256656.0000000000000000
    1158.5487906588823535   48422563969606512.0000000000000000
    1159.5496246872394295   59019639650177528.0000000000000000
    1160.5504587155962781   72171836326153280.0000000000000000
    1161.5512927439531268   87211249374761456.0000000000000000
    1162.5521267723102028   101642760988626624.0000000000000000
    1163.5529608006672788   110963862856764928.0000000000000000
    1164.5537948290241275   111198086792608016.0000000000000000
    1165.5546288573809761   102682497393092256.0000000000000000
    1166.5554628857380521   89735546792628624.0000000000000000
    1167.5562969140951282   76742382143537376.0000000000000000
    1168.5571309424519768   65998745047884968.0000000000000000
    1169.5579649708088255   58099712857488416.0000000000000000
    1170.5587989991659015   52888251450266296.0000000000000000
    1171.5596330275229775   50040448368895528.0000000000000000
    1172.5604670558798261   49307433152635768.0000000000000000
    1173.5613010842369022   50593471435624832.0000000000000000
    1174.5621351125937508   53978300035343936.0000000000000000
    1175.5629691409508268   59725136435081904.0000000000000000
    1176.5638031693079029   68273626994394416.0000000000000000
    1177.5646371976647515   80172208955736080.0000000000000000
    1178.5654712260216002   95826439824123968.0000000000000000
    1179.5663052543786762   114837235282334128.0000000000000000
    1180.5671392827357522   134810144737519760.0000000000000000
    1181.5679733110926009   150527548706881088.0000000000000000
    1182.5688073394494495   156009282185298400.0000000000000000
    1183.5696413678065255   149556889259856192.0000000000000000
    1184.5704753961636015   135226238419517152.0000000000000000
    1185.5713094245204502   118224434114302976.0000000000000000
    1186.5721434528772988   101360125132750352.0000000000000000
    1187.5729774812343749   85715026916888496.0000000000000000
    1188.5738115095914509   72046654464659592.0000000000000000
    1189.5746455379482995   60878684397079104.0000000000000000
    1190.5754795663051482   52285878646126328.0000000000000000
    1191.5763135946622242   46031818034460824.0000000000000000
    1192.5771476230193002   41798340628481656.0000000000000000
    1193.5779816513761489   39299569407985816.0000000000000000
    1194.5788156797329975   38266491234697328.0000000000000000
    1195.5796497080900735   38327187367481416.0000000000000000
    1196.5804837364471496   38861268094920016.0000000000000000
    1197.5813177648039982   39076703421988288.0000000000000000
    1198.5821517931608469   38469798458534872.0000000000000000
    1199.5829858215179229   37093911407726064.0000000000000000
    1200.5838198498749989   35109771407961524.0000000000000000
    1201.5846538782318476   32414798767088640.0000000000000000
    1202.5854879065886962   28997165835482152.0000000000000000
    1203.5863219349457722   25256168053767128.0000000000000000
    1204.5871559633028482   21713024596220448.0000000000000000
    1205.5879899916596969   18667315870649972.0000000000000000
    1206.5888240200165455   16177009881339324.0000000000000000
    1207.5896580483736216   14178484332659122.0000000000000000
    1208.5904920767306976   12576568526980448.0000000000000000
    1209.5913261050875462   11283193374069454.0000000000000000
    1210.5921601334443949   10227702669940658.0000000000000000
    1211.5929941618014709   9356389617765634.0000000000000000
    1212.5938281901585469   8629178520081552.0000000000000000
    1213.5946622185153956   8016233286347483.0000000000000000
    1214.5954962468722442   7495224480342032.0000000000000000
    1215.5963302752293203   7049301016723325.0000000000000000
    1216.5971643035863963   6665633196339194.0000000000000000
    1217.5979983319432449   6334378922230658.0000000000000000
    1218.5988323603000936   6047953233726276.0000000000000000
    1219.5996663886571696   5800513950632874.0000000000000000
    1220.6005004170142456   5587603135163529.0000000000000000
    1221.6013344453710943   5405904275902501.0000000000000000
    1222.6021684737279429   5253090028885553.0000000000000000
    1223.6030025020850189   5127746798056116.0000000000000000
    1224.6038365304420950   5029371940764056.0000000000000000
    1225.6046705587989436   4958448067599711.0000000000000000
    1226.6055045871557923   4916607143614368.0000000000000000
    1227.6063386155128683   4906903343068163.0000000000000000
    1228.6071726438699443   4934210813054353.0000000000000000
    1229.6080066722267929   5005728064461261.0000000000000000
    1230.6088407005836416   5131440416940761.0000000000000000
    1231.6096747289407176   5324001368238754.0000000000000000
    1232.6105087572977936   5596494362972698.0000000000000000
    1233.6113427856546423   5954535572661433.0000000000000000
    1234.6121768140114909   6377404903684789.0000000000000000
    1235.6130108423685670   6789945733497650.0000000000000000
    1236.6138448707256430   7058777605988691.0000000000000000
    1237.6146788990827190   7069524938535571.0000000000000000
    1238.6155129274395676   6837374548244066.0000000000000000
    1239.6163469557964163   6492948805498089.0000000000000000
    1240.6171809841534923   6166465174019644.0000000000000000
    1241.6180150125105683   5926845419384695.0000000000000000
    1242.6188490408674170   5794682516019982.0000000000000000
    1243.6196830692242656   5770464966379860.0000000000000000
    1244.6205170975813417   5851884639152484.0000000000000000
    1245.6213511259384177   6040924023528722.0000000000000000
    1246.6221851542952663   6345192375822936.0000000000000000
    1247.6230191826521150   6774524897127107.0000000000000000
    1248.6238532110091910   7329643740166050.0000000000000000
    1249.6246872393662670   7977988741013178.0000000000000000
    1250.6255212677231157   8624790703309418.0000000000000000
    1251.6263552960799643   9127739976208780.0000000000000000
    1252.6271893244370403   9404126553122592.0000000000000000
    1253.6280233527941164   9530720789464104.0000000000000000
    1254.6288573811509650   9686754258469690.0000000000000000
    1255.6296914095078137   10033226912067970.0000000000000000
    1256.6305254378648897   10674087375839872.0000000000000000
    1257.6313594662219657   11676987637642898.0000000000000000
    1258.6321934945788144   13085088245976412.0000000000000000
    1259.6330275229356630   14883637263686522.0000000000000000
    1260.6338615512927390   16906193178481286.0000000000000000
    1261.6346955796498150   18730521678375816.0000000000000000
    1262.6355296080066637   19774097726521152.0000000000000000
    1263.6363636363635123   19739724165069448.0000000000000000
    1264.6371976647205884   18942738188052836.0000000000000000
    1265.6380316930776644   18015291656025284.0000000000000000
    1266.6388657214345130   17454029422509472.0000000000000000
    1267.6396997497913617   17511282338513020.0000000000000000
    1268.6405337781484377   18297103829236896.0000000000000000
    1269.6413678065055137   19866828216841360.0000000000000000
    1270.6422018348623624   22217884216221920.0000000000000000
    1271.6430358632192110   25173692516318056.0000000000000000
    1272.6438698915762870   28175083837625208.0000000000000000
    1273.6447039199333631   30211255539322456.0000000000000000
    1274.6455379482902117   30335325794261640.0000000000000000
    1275.6463719766470604   28528341122142076.0000000000000000
    1276.6472060050041364   25710517388099316.0000000000000000
    1277.6480400333612124   22879750069195396.0000000000000000
    1278.6488740617180611   20580063787255480.0000000000000000
    1279.6497080900749097   18962317548677024.0000000000000000
    1280.6505421184319857   17997453513565834.0000000000000000
    1281.6513761467890617   17613553928605266.0000000000000000
    1282.6522101751459104   17753412362446328.0000000000000000
    1283.6530442035027590   18393110941200820.0000000000000000
    1284.6538782318598351   19547441108573580.0000000000000000
    1285.6547122602169111   21273599464308908.0000000000000000
    1286.6555462885737597   23677613711483296.0000000000000000
    1287.6563803169306084   26924993929248688.0000000000000000
    1288.6572143452876844   31254803407137592.0000000000000000
    1289.6580483736447604   36991207640073544.0000000000000000
    1290.6588824020016091   44532324280883128.0000000000000000
    1291.6597164303584577   54261087199187992.0000000000000000
    1292.6605504587155338   66257580800522736.0000000000000000
    1293.6613844870726098   79657851938967968.0000000000000000
    1294.6622185154294584   91823910466533872.0000000000000000
    1295.6630525437863071   98575794769250016.0000000000000000
    1296.6638865721433831   96986528436843168.0000000000000000
    1297.6647206005004591   88345807328581760.0000000000000000
    1298.6655546288573078   76856980462462592.0000000000000000
    1299.6663886572141564   66140338265580952.0000000000000000
    1300.6672226855712324   57867645449888072.0000000000000000
    1301.6680567139283085   52262685838519496.0000000000000000
    1302.6688907422853845   48732697877487560.0000000000000000
    1303.6697247706422331   46153657712106512.0000000000000000
    1304.6705587989990818   43247070791018264.0000000000000000
    1305.6713928273561578   39348252434211360.0000000000000000
    1306.6722268557132338   34800011200191452.0000000000000000
    1307.6730608840700825   30374113661514636.0000000000000000
    1308.6738949124269311   26594002821260784.0000000000000000
    1309.6747289407840071   23614781158386888.0000000000000000
    1310.6755629691410832   21387486105828712.0000000000000000
    1311.6763969974979318   19803074384147308.0000000000000000
    1312.6772310258547805   18759692205757492.0000000000000000
    1313.6780650542118565   18184327831298352.0000000000000000
    1314.6788990825689325   18036737526301828.0000000000000000
    1315.6797331109257811   18309015344753156.0000000000000000
    1316.6805671392826298   19025829966723464.0000000000000000
    1317.6814011676397058   20246573080575292.0000000000000000
    1318.6822351959967818   22068134883670864.0000000000000000
    1319.6830692243536305   24622629341497992.0000000000000000
    1320.6839032527104791   28053852437017340.0000000000000000
    1321.6847372810675552   32434830996375980.0000000000000000
    1322.6855713094246312   37567663564155184.0000000000000000
    1323.6864053377814798   42673686129046440.0000000000000000
    1324.6872393661383285   46316175276487104.0000000000000000
    1325.6880733944954045   47195319172067976.0000000000000000
    1326.6889074228524805   45401339194199680.0000000000000000
    1327.6897414512093292   42369726881455880.0000000000000000
    1328.6905754795661778   39617717404706736.0000000000000000
    1329.6914095079232538   38014253189206712.0000000000000000
    1330.6922435362803299   37900125684812176.0000000000000000
    1331.6930775646371785   39413170275348544.0000000000000000
    1332.6939115929940272   42701649521443336.0000000000000000
    1333.6947456213511032   48022966133154224.0000000000000000
    1334.6955796497081792   55770259796740968.0000000000000000
    1335.6964136780650279   66414858124827584.0000000000000000
    1336.6972477064218765   80261329688887520.0000000000000000
    1337.6980817347789525   96810344440332240.0000000000000000
    1338.6989157631360285   113644965117725280.0000000000000000
    1339.6997497914928772   125748749573390144.0000000000000000
    1340.7005838198497258   127633745913402656.0000000000000000
    1341.7014178482068019   118121016125187728.0000000000000000
    1342.7022518765638779   101581015986538848.0000000000000000
    1343.7030859049207265   83645246135568480.0000000000000000
    1344.7039199332775752   67688628789680720.0000000000000000
    1345.7047539616346512   54743134791651240.0000000000000000
    1346.7055879899917272   44644738822677384.0000000000000000
    1347.7064220183485759   36861160976383096.0000000000000000
    1348.7072560467054245   30851363991489236.0000000000000000
    1349.7080900750625005   26172357296648388.0000000000000000
    1350.7089241034195766   22488567628187280.0000000000000000
    1351.7097581317764252   19553139191663364.0000000000000000
    1352.7105921601332739   17185920932685148.0000000000000000
    1353.7114261884903499   15255133666539292.0000000000000000
    1354.7122602168474259   13663661879615856.0000000000000000
    1355.7130942452042746   12339225676012308.0000000000000000
    1356.7139282735611232   11227441916678656.0000000000000000
    1357.7147623019181992   10286938046600558.0000000000000000
    1358.7155963302752752   9485897938421434.0000000000000000
    1359.7164303586321239   8799602161682155.0000000000000000
    1360.7172643869889725   8208660523709118.0000000000000000
    1361.7180984153460486   7697729604987016.0000000000000000
    1362.7189324437031246   7254572968012001.0000000000000000
    1363.7197664720599732   6869365835154828.0000000000000000
    1364.7206005004170493   6534175990400813.0000000000000000
    1365.7214345287738979   6242573094047891.0000000000000000
    1366.7222685571309739   5989332635802296.0000000000000000
    1367.7231025854880500   5770210479471537.0000000000000000
    1368.7239366138448986   5581770764748873.0000000000000000
    1369.7247706422017473   5421254760597312.0000000000000000
    1370.7256046705588233   5286481738817028.0000000000000000
    1371.7264386989158993   5175775483948761.0000000000000000
    1372.7272727272727479   5087911973873978.0000000000000000
    1373.7281067556295966   5022085265978811.0000000000000000
    1374.7289407839866726   4977889863954831.0000000000000000
    1375.7297748123437486   4955318945624169.0000000000000000
    1376.7306088407005973   4954778913200304.0000000000000000
    1377.7314428690574459   4977121894977636.0000000000000000
    1378.7322768974145220   5023699208170806.0000000000000000
    1379.7331109257715980   5096440547422092.0000000000000000
    1380.7339449541284466   5197966012577957.0000000000000000
    1381.7347789824852953   5331741347877820.0000000000000000
    1382.7356130108423713   5502291395092993.0000000000000000
    1383.7364470391994473   5715493451299690.0000000000000000
    1384.7372810675562960   5978981984723082.0000000000000000
    1385.7381150959131446   6302710485082080.0000000000000000
    1386.7389491242702206   6699737196694471.0000000000000000
    1387.7397831526272967   7187331782678124.0000000000000000
    1388.7406171809841453   7788542239840145.0000000000000000
    1389.7414512093409940   8534415583269746.0000000000000000
    1390.7422852376980700   9467120505759128.0000000000000000
    1391.7431192660551460   10644226520700156.0000000000000000
    1392.7439532944119946   12144192206466038.0000000000000000
    1393.7447873227688433   14072238325420684.0000000000000000
    1394.7456213511259193   16562984270167914.0000000000000000
    1395.7464553794829953   19768615082061248.0000000000000000
    1396.7472894078398440   23804221367662648.0000000000000000
    1397.7481234361966926   28597415675157656.0000000000000000
    1398.7489574645537687   33609185960166384.0000000000000000
    1399.7497914929108447   37620324540913344.0000000000000000
    1400.7506255212676933   39184834018974728.0000000000000000
    1401.7514595496245420   37864938701587928.0000000000000000
    1402.7522935779816180   34733277596640260.0000000000000000
    1403.7531276063386940   31349133094378724.0000000000000000
    1404.7539616346955427   28756566211791820.0000000000000000
    1405.7547956630523913   27393979631088008.0000000000000000
    1406.7556296914094673   27394139140064044.0000000000000000
    1407.7564637197665434   28813085356575556.0000000000000000
    1408.7572977481233920   31701182041110184.0000000000000000
    1409.7581317764802407   36018564179758008.0000000000000000
    1410.7589658048373167   41360517094628536.0000000000000000
    1411.7597998331943927   46540975011153504.0000000000000000
    1412.7606338615512414   49539315816855304.0000000000000000
    1413.7614678899080900   48639076620699784.0000000000000000
    1414.7623019182651660   44033830891978240.0000000000000000
    1415.7631359466222420   37590137790717488.0000000000000000
    1416.7639699749790907   31143953051590132.0000000000000000
    1417.7648040033359393   25617598420954208.0000000000000000
    1418.7656380316930154   21209235317502940.0000000000000000
    1419.7664720600500914   17796475864998176.0000000000000000
    1420.7673060884069400   15177643779473102.0000000000000000
    1421.7681401167637887   13166092960171898.0000000000000000
    1422.7689741451208647   11614128378359314.0000000000000000
    1423.7698081734779407   10411817678833726.0000000000000000
    1424.7706422018347894   9479469638470892.0000000000000000
    1425.7714762301916380   8760109686782359.0000000000000000
    1426.7723102585487140   8213567669127754.0000000000000000
    1427.7731442869057901   7812266974240614.0000000000000000
    1428.7739783152626387   7538426995336365.0000000000000000
    1429.7748123436197147   7382382165836652.0000000000000000
    1430.7756463719765634   7341807046896403.0000000000000000
    1431.7764804003336394   7421724770903829.0000000000000000
    1432.7773144286907154   7635216269063903.0000000000000000
    1433.7781484570475641   8004655135987785.0000000000000000
    1434.7789824854044127   8562844669198469.0000000000000000
    1435.7798165137614887   9352096667175548.0000000000000000
    1436.7806505421185648   10416139251636480.0000000000000000
    1437.7814845704754134   11774691717765458.0000000000000000
    1438.7823185988322621   13370580761226854.0000000000000000
    1439.7831526271893381   15006814117075854.0000000000000000
    1440.7839866555464141   16350477095919130.0000000000000000
    1441.7848206839032628   17082098278363106.0000000000000000
    1442.7856547122601114   17141825512178486.0000000000000000
    1443.7864887406171874   16839685569950122.0000000000000000
    1444.7873227689742635   16640655702226426.0000000000000000
    1445.7881567973311121   16859274534483668.0000000000000000
    1446.7889908256879608   17525629290698356.0000000000000000
    1447.7898248540450368   18372360963055864.0000000000000000
    1448.7906588824021128   18947647536693188.0000000000000000
    1449.7914929107589614   18964335453019668.0000000000000000
    1450.7923269391158101   18603106631231720.0000000000000000
    1451.7931609674728861   18327899145451636.0000000000000000
    1452.7939949958299621   18473403190193572.0000000000000000
    1453.7948290241868108   19029300946344064.0000000000000000
    1454.7956630525436594   19615232703259440.0000000000000000
    1455.7964970809007355   19645322733284140.0000000000000000
    1456.7973311092578115   18740040462742736.0000000000000000
    1457.7981651376146601   17049679868568570.0000000000000000
    1458.7989991659715088   15080600556734568.0000000000000000
    1459.7998331943285848   13284140153911796.0000000000000000
    1460.8006672226856608   11879574107792930.0000000000000000
    1461.8015012510425095   10916418943794922.0000000000000000
    1462.8023352793993581   10377789180511614.0000000000000000
    1463.8031693077564341   10240808072218048.0000000000000000
    1464.8040033361135102   10497020384002620.0000000000000000
    1465.8048373644703588   11144636469582264.0000000000000000
    1466.8056713928272075   12148427851860346.0000000000000000
    1467.8065054211842835   13355053585156710.0000000000000000
    1468.8073394495413595   14397956003148926.0000000000000000
    1469.8081734778982081   14760927238119810.0000000000000000
    1470.8090075062550568   14142912291036484.0000000000000000
    1471.8098415346121328   12755055202273204.0000000000000000
    1472.8106755629692088   11091323279725036.0000000000000000
    1473.8115095913260575   9532235793921830.0000000000000000
    1474.8123436196829061   8233138070099112.0000000000000000
    1475.8131776480399822   7206833324793801.0000000000000000
    1476.8140116763970582   6412165574628160.0000000000000000
    1477.8148457047539068   5799055458057628.0000000000000000
    1478.8156797331107555   5324153919962708.0000000000000000
    1479.8165137614678315   4953851849981894.0000000000000000
    1480.8173477898249075   4663162308171109.0000000000000000
    1481.8181818181817562   4433761331420376.0000000000000000
    1482.8190158465386048   4252217758533577.5000000000000000
    1483.8198498748956808   4108628763575307.0000000000000000
    1484.8206839032527569   3995628647382066.0000000000000000
    1485.8215179316096055   3907684992690419.0000000000000000
    1486.8223519599664542   3840601955896290.0000000000000000
    1487.8231859883235302   3791168999873672.0000000000000000
    1488.8240200166806062   3756910895591501.0000000000000000
    1489.8248540450374549   3735908283647750.0000000000000000
    1490.8256880733943035   3726667673817762.5000000000000000
    1491.8265221017513795   3728026372620605.0000000000000000
    1492.8273561301084555   3739082332707764.0000000000000000
    1493.8281901584655316   3759141978210126.5000000000000000
    1494.8290241868223802   3787681146027363.0000000000000000
    1495.8298582151792289   3824315713605540.0000000000000000
    1496.8306922435363049   3868779472940321.5000000000000000
    1497.8315262718933809   3920907501028771.5000000000000000
    1498.8323603002502296   3980623764019218.5000000000000000
    1499.8331943286070782   4047932039760542.0000000000000000
    1500.8340283569641542   4122909494477098.0000000000000000
    1501.8348623853212302   4205702433287207.0000000000000000
    1502.8356964136780789   4296523881469754.5000000000000000
    1503.8365304420349275   4395652757853559.5000000000000000
    1504.8373644703920036   4503434483415038.5000000000000000
    1505.8381984987490796   4620282934291368.0000000000000000
    1506.8390325271059282   4746683704243573.0000000000000000
    1507.8398665554627769   4883198691184737.0000000000000000
    1508.8407005838198529   5030472068969394.0000000000000000
    1509.8415346121769289   5189237751990891.0000000000000000
    1510.8423686405337776   5360328508799357.0000000000000000
    1511.8432026688906262   5544686934466699.0000000000000000
    1512.8440366972477023   5743378552502558.0000000000000000
    1513.8448707256047783   5957607388863598.0000000000000000
    1514.8457047539616269   6188734446699638.0000000000000000
    1515.8465387823184756   6438299615521802.0000000000000000
    1516.8473728106755516   6708047678257253.0000000000000000
    1517.8482068390326276   6999959241636620.0000000000000000
    1518.8490408673894763   7316287619278352.0000000000000000
    1519.8498748957463249   7659602955513982.0000000000000000
    1520.8507089241034009   8032845208486119.0000000000000000
    1521.8515429524604770   8439388036181910.0000000000000000
    1522.8523769808173256   8883116179661538.0000000000000000
    1523.8532110091741743   9368519655725812.0000000000000000
    1524.8540450375312503   9900809014089760.0000000000000000
    1525.8548790658883263   10486057161126454.0000000000000000
    1526.8557130942451749   11131374913840766.0000000000000000
    1527.8565471226022510   11845129678866692.0000000000000000
    1528.8573811509590996   12637219671154276.0000000000000000
    1529.8582151793161756   13519420208354320.0000000000000000
    1530.8590492076730243   14505824289645938.0000000000000000
    1531.8598832360301003   15613407544818004.0000000000000000
    1532.8607172643869490   16862758676093560.0000000000000000
    1533.8615512927440250   18279032120537416.0000000000000000
    1534.8623853211008736   19893201928122144.0000000000000000
    1535.8632193494579496   21743727908181536.0000000000000000
    1536.8640533778147983   23878791638607388.0000000000000000
    1537.8648874061718743   26359328001171040.0000000000000000
    1538.8657214345287230   29263178008453600.0000000000000000
    1539.8665554628857990   32690836223241420.0000000000000000
    1540.8673894912426476   36773482731075064.0000000000000000
    1541.8682235195997237   41684303268519280.0000000000000000
    1542.8690575479565723   47654539224619432.0000000000000000
    1543.8698915763136483   54996271340760216.0000000000000000
    1544.8707256046704970   64134507781860072.0000000000000000
    1545.8715596330275730   75651209480317168.0000000000000000
    1546.8723936613844216   90341777214583376.0000000000000000
    1547.8732276897414977   109275377765713056.0000000000000000
    1548.8740617180983463   133821299285106336.0000000000000000
    1549.8748957464554223   165524030729802240.0000000000000000
    1550.8757297748122710   205530425460302176.0000000000000000
    1551.8765638031693470   253012898838308032.0000000000000000
    1552.8773978315261957   302228765498747072.0000000000000000
    1553.8782318598832717   340217671690678208.0000000000000000
    1554.8790658882401203   351449997055363392.0000000000000000
    1555.8798999165971964   330798826982991360.0000000000000000
    1556.8807339449540450   288996040643074624.0000000000000000
    1557.8815679733111210   241904053194779392.0000000000000000
    1558.8824020016679697   199787558053404288.0000000000000000
    1559.8832360300250457   166191014377770272.0000000000000000
    1560.8840700583818943   141026278731134544.0000000000000000
    1561.8849040867389704   123032753308653376.0000000000000000
    1562.8857381150958190   110905307596869248.0000000000000000
    1563.8865721434528950   103663523597899520.0000000000000000
    1564.8874061718097437   100724223513203984.0000000000000000
    1565.8882402001668197   101891132391665376.0000000000000000
    1566.8890742285236684   107335663414097824.0000000000000000
    1567.8899082568807444   117572015138158720.0000000000000000
    1568.8907422852375930   133366347415710352.0000000000000000
    1569.8915763135946690   155409128820476384.0000000000000000
    1570.8924103419515177   183402729390201856.0000000000000000
    1571.8932443703085937   214214529886890432.0000000000000000
    1572.8940783986654424   239924327564731648.0000000000000000
    1573.8949124270225184   249580061266573696.0000000000000000
    1574.8957464553793670   237375457571844032.0000000000000000
    1575.8965804837364431   208585434502094400.0000000000000000
    1576.8974145120932917   174039794386880160.0000000000000000
    1577.8982485404503677   141760090841959744.0000000000000000
    1578.8990825688072164   114919395258620288.0000000000000000
    1579.8999165971642924   93724399745297312.0000000000000000
    1580.9007506255211410   77286361235884416.0000000000000000
    1581.9015846538782171   64549187229313376.0000000000000000
    1582.9024186822350657   54605902165148112.0000000000000000
    1583.9032527105921417   46756261437036432.0000000000000000
    1584.9040867389489904   40481130220203248.0000000000000000
    1585.9049207673060664   35400619283336696.0000000000000000
    1586.9057547956629151   31236726936481400.0000000000000000
    1587.9065888240199911   27784688038726808.0000000000000000
    1588.9074228523768397   24892218437079392.0000000000000000
    1589.9082568807339158   22444804332862604.0000000000000000
    1590.9090909090909918   20355335960261744.0000000000000000
    1591.9099249374478404   18556785328800016.0000000000000000
    1592.9107589658049164   16996999717627648.0000000000000000
    1593.9115929941617651   15634966620540560.0000000000000000
    1594.9124270225188411   14438107477357910.0000000000000000
    1595.9132610508756898   13380296344521996.0000000000000000
    1596.9140950792327658   12440394092611044.0000000000000000
    1597.9149291075896144   11601152811869886.0000000000000000
    1598.9157631359466905   10848388735909322.0000000000000000
    1599.9165971643035391   10170351869359610.0000000000000000
    1600.9174311926606151   9557241119715530.0000000000000000
    1601.9182652210174638   9000828080048680.0000000000000000
    1602.9190992493745398   8494162683899991.0000000000000000
    1603.9199332777313884   8031341093707422.0000000000000000
    1604.9207673060884645   7607321290848841.0000000000000000
    1605.9216013344453131   7217775520884981.0000000000000000
    1606.9224353628023891   6858971430846478.0000000000000000
    1607.9232693911592378   6527675705713772.0000000000000000
    1608.9241034195163138   6221075469964115.0000000000000000
    1609.9249374478731625   5936713808652921.0000000000000000
    1610.9257714762302385   5672436581076952.0000000000000000
    1611.9266055045870871   5426348320149344.0000000000000000
    1612.9274395329441631   5196775483634757.0000000000000000
    1613.9282735613010118   4982235686681322.0000000000000000
    1614.9291075896580878   4781411825897475.0000000000000000
    1615.9299416180149365   4593130223643317.0000000000000000
    1616.9307756463720125   4416342092102299.0000000000000000
    1617.9316096747288611   4250107751186271.0000000000000000
    1618.9324437030859372   4093583140733825.5000000000000000
    1619.9332777314427858   3946008252104344.5000000000000000
    1620.9341117597998618   3806697171932269.5000000000000000
    1621.9349457881567105   3675029485165470.0000000000000000
    1622.9357798165137865   3550442828380131.5000000000000000
    1623.9366138448706351   3432426419933316.0000000000000000
    1624.9374478732277112   3320515422471408.5000000000000000
    1625.9382819015845598   3214286016991766.0000000000000000
    1626.9391159299416358   3113351087089416.0000000000000000
    1627.9399499582984845   3017356428039037.0000000000000000
    1628.9407839866555605   2925977408608643.0000000000000000
    1629.9416180150124092   2838916024499930.0000000000000000
    1630.9424520433694852   2755898291469010.0000000000000000
    1631.9432860717263338   2676671933838381.5000000000000000
    1632.9441201000834099   2601004330528742.0000000000000000
    1633.9449541284402585   2528680686139452.0000000000000000
    1634.9457881567973345   2459502399159932.0000000000000000
    1635.9466221851541832   2393285603249019.0000000000000000
    1636.9474562135112592   2329859860787952.5000000000000000
    1637.9482902418681078   2269066990695498.5000000000000000
    1638.9491242702251839   2210760014865804.2500000000000000
    1639.9499582985820325   2154802209620036.7500000000000000
    1640.9507923269391085   2101066250301958.7500000000000000
    1641.9516263552959572   2049433438643956.5000000000000000
    1642.9524603836530332   1999793003817399.5000000000000000
    1643.9532944120098819   1952041469194305.2500000000000000
    1644.9541284403669579   1906082077808951.5000000000000000
    1645.9549624687238065   1861824270343421.5000000000000000
    1646.9557964970808825   1819183210185570.2500000000000000
    1647.9566305254377312   1778079350740065.0000000000000000
    1648.9574645537948072   1738438040723394.0000000000000000
    1649.9582985821516559   1700189163655922.0000000000000000
    1650.9591326105087319   1663266808185159.7500000000000000
    1651.9599666388655805   1627608966244955.0000000000000000
    1652.9608006672226566   1593157256379889.7500000000000000
    1653.9616346955797326   1559856669850944.0000000000000000
    1654.9624687239365812   1527655337390417.0000000000000000
    1655.9633027522936572   1496504314697352.2500000000000000
    1656.9641367806505059   1466357384961917.0000000000000000
    1657.9649708090075819   1437170876881685.0000000000000000
    1658.9658048373644306   1408903496788260.0000000000000000
    1659.9666388657215066   1381516173640024.2500000000000000
    1660.9674728940783552   1354971915759890.5000000000000000
    1661.9683069224354313   1329235678305798.0000000000000000
    1662.9691409507922799   1304274240559652.0000000000000000
    1663.9699749791493559   1280056092207172.5000000000000000
    1664.9708090075062046   1256551327859480.5000000000000000
    1665.9716430358632806   1233731549136774.0000000000000000
    1666.9724770642201293   1211569773697464.2500000000000000
    1667.9733110925772053   1190040350652102.2500000000000000
    1668.9741451209340539   1169118881852378.0000000000000000
    1669.9749791492911299   1148782148590717.2500000000000000
    1670.9758131776479786   1129008043287392.7500000000000000
    1671.9766472060050546   1109775505778814.8750000000000000
    1672.9774812343619033   1091064463854438.0000000000000000
    1673.9783152627189793   1072855777719697.2500000000000000
    1674.9791492910758279   1055131188090071.2500000000000000
    1675.9799833194329040   1037873267645911.5000000000000000
    1676.9808173477897526   1021065375600471.7500000000000000
    1677.9816513761468286   1004691615153741.0000000000000000
    1678.9824854045036773   988736793623529.1250000000000000
    1679.9833194328607533   973186385061893.6250000000000000
    1680.9841534612176019   958026495180632.7500000000000000
    1681.9849874895746780   943243828423352.1250000000000000
    1682.9858215179315266   928825657034630.0000000000000000
    1683.9866555462886026   914759791988263.5000000000000000
    1684.9874895746454513   901034555647458.5000000000000000
    1685.9883236030025273   887638756039372.7500000000000000
    1686.9891576313593760   874561662635554.2500000000000000
    1687.9899916597164520   861792983537796.0000000000000000
    1688.9908256880733006   849322843976621.0000000000000000
    1689.9916597164303766   837141766036293.6250000000000000
    1690.9924937447872253   825240649526761.3750000000000000
    1691.9933277731443013   813610753928543.5000000000000000
    1692.9941618015011500   802243681342099.0000000000000000
    1693.9949958298582260   791131360377940.3750000000000000
    1694.9958298582150746   780266030928448.5000000000000000
    1695.9966638865721507   769640229766342.3750000000000000
    1696.9974979149289993   759246776918761.2500000000000000
    1697.9983319432860753   749078762769297.5000000000000000
    1698.9991659716429240   739129535843752.2500000000000000
    1700.0000000000000000   729392691238246.2500000000000000
