     500.0000000000000000          0.0055441779063499
     501.0008340283569623          0.0059906991022254
     502.0016680567139247          0.0065332494127052
     503.0025020850708870          0.0072010968195794
     504.0033361134278493          0.0080343082814321
     505.0041701417848117          0.0090876555299519
     506.0050041701417740          0.0104348286073986
     507.0058381984987363          0.0121704308758747
     508.0066722268556987          0.0144018585798173
     509.0075062552126610          0.0172109485547620
     510.0083402835696234          0.0205471227806541
     511.0091743119265857          0.0240248484430462
     512.0100083402835480          0.0267555540397311
     513.0108423686405104          0.0276477681416197
     514.0116763969974727          0.0263043027729967
     515.0125104253544350          0.0234417012690632
     516.0133444537113974          0.0201672368070358
     517.0141784820683597          0.0172110766841870
     518.0150125104253220          0.0148283982919552
     519.0158465387822844          0.0130118014780318
     520.0166805671392467          0.0116655628349703
     521.0175145954962090          0.0106859188237164
     522.0183486238531714          0.0099866051949743
     523.0191826522101337          0.0095023912015247
     524.0200166805670960          0.0091859261211657
     525.0208507089240584          0.0090035348450684
     526.0216847372810207          0.0089316307550868
     527.0225187656379831          0.0089540317791692
     528.0233527939949454          0.0090600639963362
     529.0241868223519077          0.0092432666827666
     530.0250208507088701          0.0095005379230660
     531.0258548790659461          0.0098316030386571
     532.0266889074227947          0.0102387269021759
     533.0275229357798707          0.0107266217892590
     534.0283569641367194          0.0113025261779381
     535.0291909924937954          0.0119764494075779
     536.0300250208507578          0.0127615949443793
     537.0308590492077201          0.0136749936768684
     538.0316930775646824          0.0147384008494417
     539.0325271059216448          0.0159795391564241
     540.0333611342786071          0.0174338104693251
     541.0341951626355694          0.0191466557544389
     542.0350291909925318          0.0211768257735824
     543.0358632193494941          0.0236009467630184
     544.0366972477064564          0.0265199426353193
     545.0375312760634188          0.0300681288234085
     546.0383653044203811          0.0344261377412958
     547.0391993327773434          0.0398392495277781
     548.0400333611343058          0.0466430237675363
     549.0408673894912681          0.0552977666640453
     550.0417014178482304          0.0664304907088477
     551.0425354462051928          0.0808724637560913
     552.0433694745621551          0.0996490206443300
     553.0442035029191175          0.1237982170629833
     554.0450375312760798          0.1537355332136226
     555.0458715596330421          0.1877449701463452
     556.0467055879900045          0.2197559622972728
     557.0475396163469668          0.2391101929898909
     558.0483736447039291          0.2367681173738041
     559.0492076730608915          0.2139736862416944
     560.0500417014178538          0.1809244603266869
     561.0508757297748161          0.1475836959143181
     562.0517097581317785          0.1189595489037484
     563.0525437864887408          0.0961495370480098
     564.0533778148457031          0.0785197911562294
     565.0542118432026655          0.0650042717363123
     566.0550458715596278          0.0546124393428322
     567.0558798999165901          0.0465582079937006
     568.0567139282735525          0.0402537429938056
     569.0575479566305148          0.0352689671737476
     570.0583819849874772          0.0312907326009184
     571.0592160133444395          0.0280902583651074
     572.0600500417014018          0.0254991957080443
     573.0608840700583642          0.0233925949702564
     574.0617180984153265          0.0216769204279821
     575.0625521267722888          0.0202816276701238
     576.0633861551292512          0.0191532238900405
     577.0642201834862135          0.0182510573742181
     578.0650542118431758          0.0175443188540039
     579.0658882402001382          0.0170099019282441
     580.0667222685571005          0.0166308826138517
     581.0675562969140628          0.0163954554886094
     582.0683903252710252          0.0162962176264825
     583.0692243536279875          0.0163297297924236
     584.0700583819849498          0.0164963128599335
     585.0708924103419122          0.0168000602164561
     586.0717264386988745          0.0172490671528204
     587.0725604670558369          0.0178558985872967
     588.0733944954127992          0.0186383396661755
     589.0742285237697615          0.0196205029980015
     590.0750625521267239          0.0208344057104217
     591.0758965804836862          0.0223221850539377
     592.0767306088407622          0.0241392013995221
     593.0775646371976109          0.0263583943485366
     594.0783986655546869          0.0290764280106225
     595.0792326939115355          0.0324224057870668
     596.0800667222686116          0.0365702703201326
     597.0809007506254602          0.0417564170046154
     598.0817347789825362          0.0483044082838930
     599.0825688073393849          0.0566584763672153
     600.0834028356964609          0.0674251545787111
     601.0842368640534232          0.0814133477876165
     602.0850708924103856          0.0996356771168861
     603.0859049207673479          0.1231622370036608
     604.0867389491243102          0.1525682179146682
     605.0875729774812726          0.1865542767778784
     606.0884070058382349          0.2197230419859641
     607.0892410341951972          0.2417689578462916
     608.0900750625521596          0.2427435919332699
     609.0909090909091219          0.2222252049728975
     610.0917431192660842          0.1897773638671904
     611.0925771476230466          0.1559598077903227
     612.0934111759800089          0.1265526216943153
     613.0942452043369713          0.1030896146004138
     614.0950792326939336          0.0850994989674611
     615.0959132610508959          0.0715604358616234
     616.0967472894078583          0.0614993699074761
     617.0975813177648206          0.0541583360251876
     618.0984153461217829          0.0489951613667769
     619.0992493744787453          0.0456229096840847
     620.1000834028357076          0.0437032560770840
     621.1009174311926699          0.0427785503927407
     622.1017514595496323          0.0421016463342478
     623.1025854879065946          0.0407391232745140
     624.1034195162635569          0.0381555190472218
     625.1042535446205193          0.0346549392149368
     626.1050875729774816          0.0309815093218528
     627.1059216013344439          0.0276934617712826
     628.1067556296914063          0.0250007385379654
     629.1075896580483686          0.0228994942377819
     630.1084236864053310          0.0213097396082500
     631.1092577147622933          0.0201439526792555
     632.1100917431192556          0.0193304009531830
     633.1109257714762180          0.0188173546012125
     634.1117597998331803          0.0185713249025548
     635.1125938281901426          0.0185743773677464
     636.1134278565471050          0.0188221331739258
     637.1142618849040673          0.0193228688228382
     638.1150959132610296          0.0200978001934804
     639.1159299416179920          0.0211826341826351
     640.1167639699749543          0.0226305906501179
     641.1175979983319166          0.0245172826637125
     642.1184320266888790          0.0269480864424190
     643.1192660550458413          0.0300689285001575
     644.1201000834028036          0.0340817059895842
     645.1209341117597660          0.0392655824338276
     646.1217681401167283          0.0460043318861727
     647.1226021684736907          0.0548153092035121
     648.1234361968306530          0.0663610266309163
     649.1242702251876153          0.0813847238045635
     650.1251042535445777          0.1004226396694081
     651.1259382819015400          0.1230203653798174
     652.1267723102585023          0.1462914736436838
     653.1276063386155784          0.1638455090687430
     654.1284403669724270          0.1681819734160817
     655.1292743953295030          0.1570187841965982
     656.1301084236863517          0.1357100998661029
     657.1309424520434277          0.1119024151659146
     658.1317764804002763          0.0904424216621194
     659.1326105087573524          0.0729371826028810
     660.1334445371142010          0.0592608061741070
     661.1342785654712770          0.0487238250935460
     662.1351125938281257          0.0405989029655400
     663.1359466221852017          0.0342835835052026
     664.1367806505420504          0.0293196043607536
     665.1376146788991264          0.0253694989772967
     666.1384487072559750          0.0221870894352397
     667.1392827356130510          0.0195925021660398
     668.1401167639698997          0.0174533737356941
     669.1409507923269757          0.0156713469123704
     670.1417848206839381          0.0141725322294722
     671.1426188490409004          0.0129007940537628
     672.1434528773978627          0.0118130084021657
     673.1442869057548251          0.0108756895252364
     674.1451209341117874          0.0100625684720198
     675.1459549624687497          0.0093528376950279
     676.1467889908257121          0.0087298654331474
     677.1476230191826744          0.0081802445184066
     678.1484570475396367          0.0076930815861454
     679.1492910758965991          0.0072594608241338
     680.1501251042535614          0.0068720356988086
     681.1509591326105237          0.0065247154347878
     682.1517931609674861          0.0062124223211878
     683.1526271893244484          0.0059309024590174
     684.1534612176814107          0.0056765772092551
     685.1542952460383731          0.0054464259327037
     686.1551292743953354          0.0052378930263488
     687.1559633027522977          0.0050488140288373
     688.1567973311092601          0.0048773568789007
     689.1576313594662224          0.0047219753981495
     690.1584653878231848          0.0045813728290236
     691.1592994161801471          0.0044544738599862
     692.1601334445371094          0.0043404040671358
     693.1609674728940718          0.0042384761384252
     694.1618015012510341          0.0041481826635339
     695.1626355296079964          0.0040691957098776
     696.1634695579649588          0.0040013739105208
     697.1643035863219211          0.0039447784236257
     698.1651376146788834          0.0038996999693467
     699.1659716430358458          0.0038667003290592
     700.1668056713928081          0.0038466733787211
     701.1676396997497704          0.0038409331762728
     702.1684737281067328          0.0038513401849563
     703.1693077564636951          0.0038804818356711
     704.1701417848206574          0.0039319307300675
     705.1709758131776198          0.0040106127649456
     706.1718098415345821          0.0041233261206096
     707.1726438698915445          0.0042794513976069
     708.1734778982485068          0.0044918541653972
     709.1743119266054691          0.0047778196578378
     710.1751459549624315          0.0051593527600412
     711.1759799833193938          0.0056608166440545
     712.1768140116763561          0.0062988917408644
     713.1776480400333185          0.0070558554561942
     714.1784820683902808          0.0078320589363310
     715.1793160967472431          0.0084152002974848
     716.1801501251043192          0.0085684780775293
     717.1809841534611678          0.0082367273674945
     718.1818181818182438          0.0076065069327310
     719.1826522101750925          0.0069241136217633
     720.1834862385321685          0.0063405212968706
     721.1843202668890171          0.0059051667251058
     722.1851542952460932          0.0056154524082001
     723.1859883236029418          0.0054532216829293
     724.1868223519600178          0.0054009417311149
     725.1876563803168665          0.0054468807061649
     726.1884904086739425          0.0055861262351231
     727.1893244370307912          0.0058205714583935
     728.1901584653878672          0.0061590631798996
     729.1909924937447158          0.0066181645563527
     730.1918265221017919          0.0072237715544973
     731.1926605504586405          0.0080138031549888
     732.1934945788157165          0.0090421830997378
     733.1943286071726789          0.0103841415361902
     734.1951626355296412          0.0121420095095612
     735.1959966638866035          0.0144479114544256
     736.1968306922435659          0.0174521699498663
     737.1976647206005282          0.0212689652321190
     738.1984987489574905          0.0258251665072980
     739.1993327773144529          0.0305741195697477
     740.2001668056714152          0.0342588997356551
     741.2010008340283775          0.0353380077988711
     742.2018348623853399          0.0332527095335302
     743.2026688907423022          0.0290160250802935
     744.2035029190992645          0.0241897737723232
     745.2043369474562269          0.0198020470079999
     746.2051709758131892          0.0162105996652264
     747.2060050041701516          0.0134029371014347
     748.2068390325271139          0.0112420306938219
     749.2076730608840762          0.0095794150424113
     750.2085070892410386          0.0082911075174496
     751.2093411175980009          0.0072825172891328
     752.2101751459549632          0.0064839293665559
     753.2110091743119256          0.0058445022571381
     754.2118432026688879          0.0053271252541607
     755.2126772310258502          0.0049045333390255
     756.2135112593828126          0.0045565113374717
     757.2143452877397749          0.0042679185877928
     758.2151793160967372          0.0040272992971894
     759.2160133444536996          0.0038259021930013
     760.2168473728106619          0.0036569845043175
     761.2176814011676242          0.0035153138669445
     762.2185154295245866          0.0033968089140888
     763.2193494578815489          0.0032982779696677
     764.2201834862385113          0.0032172279546053
     765.2210175145954736          0.0031517242565638
     766.2218515429524359          0.0031002882331399
     767.2226855713093983          0.0030618231230884
     768.2235195996663606          0.0030355620397401
     769.2243536280233229          0.0030210338289766
     770.2251876563802853          0.0030180441771289
     771.2260216847372476          0.0030266706588763
     772.2268557130942099          0.0030472715831519
     773.2276897414512860          0.0030805096683292
     774.2285237698081346          0.0031273929018105
     775.2293577981652106          0.0031893365851564
     776.2301918265220593          0.0032682527600744
     777.2310258548791353          0.0033666762703435
     778.2318598832359839          0.0034879410994863
     779.2326939115930600          0.0036364270006166
     780.2335279399499086          0.0038179057483283
     781.2343619683069846          0.0040400298414720
     782.2351959966638333          0.0043130255330468
     783.2360300250209093          0.0046506772105180
     784.2368640533777580          0.0050717179647309
     785.2376980817348340          0.0056017545977505
     786.2385321100916826          0.0062757959831734
     787.2393661384487586          0.0071411470208293
     788.2402001668056073          0.0082593987122723
     789.2410341951626833          0.0097033256226942
     790.2418682235195320          0.0115375225640789
     791.2427022518766080          0.0137596814915988
     792.2435362802334566          0.0161780177925409
     793.2443703085905327          0.0182760168869236
     794.2452043369473813          0.0193178020716954
     795.2460383653044573          0.0188959819784817
     796.2468723936613060          0.0173603808019258
     797.2477064220183820          0.0154672116516011
     798.2485404503752306          0.0138010901388884
     799.2493744787323067          0.0126221234302173
     800.2502085070891553          0.0119935248265326
     801.2510425354462313          0.0119142403475324
     802.2518765638030800          0.0123842247933766
     803.2527105921601560          0.0134159150075210
     804.2535446205171183          0.0149976133680545
     805.2543786488740807          0.0169916050936040
     806.2552126772310430          0.0189752005275628
     807.2560467055880054          0.0201967277914034
     808.2568807339449677          0.0199691925905048
     809.2577147623019300          0.0182994732570965
     810.2585487906588924          0.0158690265318232
     811.2593828190158547          0.0133954023296744
     812.2602168473728170          0.0112565472207507
     813.2610508757297794          0.0095430117340903
     814.2618849040867417          0.0082131990906927
     815.2627189324437040          0.0071905578696806
     816.2635529608006664          0.0064026493824936
     817.2643869891576287          0.0057915208795505
     818.2652210175145910          0.0053136214513687
     819.2660550458715534          0.0049369655492099
     820.2668890742285157          0.0046381801556374
     821.2677231025854780          0.0044001249201195
     822.2685571309424404          0.0042101336940527
     823.2693911592994027          0.0040587587841646
     824.2702251876563651          0.0039388846210792
     825.2710592160133274          0.0038451026786620
     826.2718932443702897          0.0037732685502940
     827.2727272727272521          0.0037201857342119
     828.2735613010842144          0.0036833779038465
     829.2743953294411767          0.0036609234307683
     830.2752293577981391          0.0036513341225535
     831.2760633861551014          0.0036534657060859
     832.2768974145120637          0.0036664513753264
     833.2777314428690261          0.0036896523141842
     834.2785654712259884          0.0037226208921794
     835.2793994995829507          0.0037650734751031
     836.2802335279399131          0.0038168706697219
     837.2810675562968754          0.0038780034479243
     838.2819015846539514          0.0039485840507036
     839.2827356130108001          0.0040288409100076
     840.2835696413678761          0.0041191170841658
     841.2844036697247248          0.0042198719067479
     842.2852376980818008          0.0043316857185344
     843.2860717264386494          0.0044552677023837
     844.2869057547957254          0.0045914669829463
     845.2877397831525741          0.0047412872977015
     846.2885738115096501          0.0049059057026075
     847.2894078398664988          0.0050866959552661
     848.2902418682235748          0.0052852574330069
     849.2910758965804234          0.0055034507074993
     850.2919099249374995          0.0057434412303659
     851.2927439532943481          0.0060077530107883
     852.2935779816514241          0.0062993347198890
     853.2944120100082728          0.0066216413836659
     854.2952460383653488          0.0069787357899258
     855.2960800667221974          0.0073754150236447
     856.2969140950792735          0.0078173692844314
     857.2977481234361221          0.0083113825069980
     858.2985821517931981          0.0088655875558156
     859.2994161801500468          0.0094897932676033
     860.3002502085071228          0.0101959069089618
     861.3010842368639715          0.0109984844945111
     862.3019182652210475          0.0119154540496445
     863.3027522935778961          0.0129690750569079
     864.3035863219349721          0.0141872236278831
     865.3044203502918208          0.0156051313443467
     866.3052543786488968          0.0172677621216158
     867.3060884070057455          0.0192330945790231
     868.3069224353628215          0.0215766997095155
     869.3077564637197838          0.0243981816641834
     870.3085904920767462          0.0278303013771290
     871.3094245204337085          0.0320519362211451
     872.3102585487906708          0.0373063994259642
     873.3110925771476332          0.0439268270293548
     874.3119266055045955          0.0523695712852586
     875.3127606338615578          0.0632525208678389
     876.3135946622185202          0.0773817045499827
     877.3144286905754825          0.0957110591131322
     878.3152627189324448          0.1190878821746592
     879.3160967472894072          0.1474768744061725
     880.3169307756463695          0.1783282399581302
     881.3177648040033318          0.2047374696097214
     882.3185988323602942          0.2167451077702687
     883.3194328607172565          0.2086020993934120
     884.3202668890742189          0.1846785703305376
     885.3211009174311812          0.1549248558359624
     886.3219349457881435          0.1270225875545201
     887.3227689741451059          0.1041725624810714
     888.3236030025020682          0.0867167516955244
     889.3244370308590305          0.0738393977176165
     890.3252710592159929          0.0643594450074718
     891.3261050875729552          0.0569819115297898
     892.3269391159299175          0.0505612537726839
     893.3277731442868799          0.0445236391896922
     894.3286071726438422          0.0389359806630732
     895.3294412010008045          0.0340710430432691
     896.3302752293577669          0.0300598292435899
     897.3311092577147292          0.0268682327413739
     898.3319432860716915          0.0243907551220756
     899.3327773144286539          0.0225182286770901
     900.3336113427856162          0.0211657249633384
     901.3344453711426922          0.0202799550490496
     902.3352793994995409          0.0198398488185195
     903.3361134278566169          0.0198557613733366
     904.3369474562134656          0.0203671540611751
     905.3377814845705416          0.0214325850591274
     906.3386155129273902          0.0230952548630074
     907.3394495412844662          0.0252926491099603
     908.3402835696413149          0.0276899548455923
     909.3411175979983909          0.0295500941149871
     910.3419516263552396          0.0299956842839282
     911.3427856547123156          0.0287389926053136
     912.3436196830691642          0.0263877698332102
     913.3444537114262403          0.0238413153044928
     914.3452877397830889          0.0216883624149904
     915.3461217681401649          0.0201457757926392
     916.3469557964970136          0.0192339413675909
     917.3477898248540896          0.0189167038442876
     918.3486238532109383          0.0191651115925976
     919.3494578815680143          0.0199734540930102
     920.3502919099248629          0.0213446551325592
     921.3511259382819389          0.0232432319406089
     922.3519599666387876          0.0255228514774388
     923.3527939949958636          0.0279131873011603
     924.3536280233527123          0.0302202163527441
     925.3544620517097883          0.0326377094832885
     926.3552960800666369          0.0357453297503457
     927.3561301084237130          0.0402052487298487
     928.3569641367805616          0.0465450491504341
     929.3577981651376376          0.0550213736996060
     930.3586321934944863          0.0652734997945656
     931.3594662218515623          0.0756536640244349
     932.3603002502085246          0.0828716782827622
     933.3611342785654870          0.0834938635514748
     934.3619683069224493          0.0769829172106108
     935.3628023352794116          0.0662476426208517
     936.3636363636363740          0.0548190730401945
     937.3644703919933363          0.0447395511992638
     938.3653044203502986          0.0365986024414831
     939.3661384487072610          0.0302657285799798
     940.3669724770642233          0.0253972423980171
     941.3678065054211856          0.0216516920361779
     942.3686405337781480          0.0187521178139066
     943.3694745621351103          0.0164902007823573
     944.3703085904920727          0.0147140972066069
     945.3711426188490350          0.0133147201073355
     946.3719766472059973          0.0122145817273410
     947.3728106755629597          0.0113597282536842
     948.3736447039199220          0.0107143234034437
     949.3744787322768843          0.0102573060010949
     950.3753127606338467          0.0099805936974578
     951.3761467889908090          0.0098882076865175
     952.3769808173477713          0.0099950770959785
     953.3778148457047337          0.0103224147666622
     954.3786488740616960          0.0108823643548479
     955.3794829024186583          0.0116391998322486
     956.3803169307756207          0.0124422076544285
     957.3811509591325830          0.0129858586232692
     958.3819849874895453          0.0129401538209322
     959.3828190158465077          0.0122372504185446
     960.3836530442034700          0.0111409724401199
     961.3844870725604324          0.0099877136393070
     962.3853211009173947          0.0089782347592255
     963.3861551292743570          0.0081744956139901
     964.3869891576313194          0.0075684684540693
     965.3878231859882817          0.0071308203867130
     966.3886572143453577          0.0068302828104766
     967.3894912427022064          0.0066352759599498
     968.3903252710592824          0.0065071202393946
     969.3911592994161310          0.0063967645057615
     970.3919933277732071          0.0062616395214804
     971.3928273561300557          0.0060942279869063
     972.3936613844871317          0.0059210304549284
     973.3944954128439804          0.0057722423227251
     974.3953294412010564          0.0056634364480927
     975.3961634695579050          0.0055975718561950
     976.3969974979149811          0.0055721188619699
     977.3978315262718297          0.0055835721022284
     978.3986655546289057          0.0056292778779374
     979.3994995829857544          0.0057079498991545
     980.4003336113428304          0.0058197366227574
     981.4011676396996791          0.0059662121049652
     982.4020016680567551          0.0061504284875527
     983.4028356964136037          0.0063770840915644
     984.4036697247706797          0.0066528420118649
     985.4045037531275284          0.0069868421811620
     986.4053377814846044          0.0073914715670532
     987.4061718098414531          0.0078834880969539
     988.4070058381985291          0.0084856293440919
     989.4078398665553777          0.0092288594557590
     990.4086738949124538          0.0101553572322625
     991.4095079232693024          0.0113220428203036
     992.4103419516263784          0.0128033767408136
     993.4111759799832271          0.0146890948321723
     994.4120100083403031          0.0170650159216451
     995.4128440366971518          0.0199513742504206
     996.4136780650542278          0.0231673722988586
     997.4145120934111901          0.0261630115660501
     998.4153461217681524          0.0280887998216363
     999.4161801501251148          0.0283964116595832
    1000.4170141784820771          0.0274265790972645
    1001.4178482068390394          0.0261004449164670
    1002.4186822351960018          0.0252116173429037
    1003.4195162635529641          0.0251836151906289
    1004.4203502919099265          0.0262035428118252
    1005.4211843202668888          0.0283753721767561
    1006.4220183486238511          0.0317586394411623
    1007.4228523769808135          0.0362592401120201
    1008.4236864053377758          0.0413509217715242
    1009.4245204336947381          0.0457811392543126
    1010.4253544620517005          0.0478665051060567
    1011.4261884904086628          0.0467685672701998
    1012.4270225187656251          0.0433691814794889
    1013.4278565471225875          0.0393820688276818
    1014.4286905754795498          0.0360860315348442
    1015.4295246038365121          0.0340436048370124
    1016.4303586321934745          0.0334054166265693
    1017.4311926605504368          0.0342049292875917
    1018.4320266889073991          0.0365053848540486
    1019.4328607172643615          0.0404368467978733
    1020.4336947456213238          0.0461375945543358
    1021.4345287739782862          0.0535440799000203
    1022.4353628023352485          0.0619487812438484
    1023.4361968306922108          0.0694985000910950
    1024.4370308590491732          0.0735288222019203
    1025.4378648874062492          0.0725114211096567
    1026.4386989157630978          0.0676720915800037
    1027.4395329441199465          0.0618018337065311
    1028.4403669724770225          0.0571458089513611
    1029.4412010008340985          0.0548047751707225
    1030.4420350291909472          0.0551767972951863
    1031.4428690575477958          0.0583963590138296
    1032.4437030859048718          0.0644257502466739
    1033.4445371142619479          0.0727420579952300
    1034.4453711426187965          0.0816605469989816
    1035.4462051709756452          0.0879214246107151
    1036.4470391993327212          0.0880428228184754
    1037.4478732276897972          0.0812897399760408
    1038.4487072560466459          0.0703767149027394
    1039.4495412844034945          0.0587663516110517
    1040.4503753127605705          0.0485094819675847
    1041.4512093411176465          0.0402140004210583
    1042.4520433694744952          0.0337585884512306
    1043.4528773978313438          0.0288017677340205
    1044.4537114261884199          0.0250014272232487
    1045.4545454545454959          0.0220793063359291
    1046.4553794829025719          0.0198260508399551
    1047.4562135112594206          0.0180893619958511
    1048.4570475396162692          0.0167603686819996
    1049.4578815679733452          0.0157624853783924
    1050.4587155963304212          0.0150433422972799
    1051.4595496246872699          0.0145693709079378
    1052.4603836530441185          0.0143225149232430
    1053.4612176814011946          0.0142986795980589
    1054.4620517097582706          0.0145077265641046
    1055.4628857381151192          0.0149750072607820
    1056.4637197664719679          0.0157445716733426
    1057.4645537948290439          0.0168842014246882
    1058.4653878231861199          0.0184920110579852
    1059.4662218515429686          0.0207027133711144
    1060.4670558798998172          0.0236866191631476
    1061.4678899082568932          0.0276214348075915
    1062.4687239366139693          0.0325903355221280
    1063.4695579649708179          0.0383336545402398
    1064.4703919933276666          0.0438648160207297
    1065.4712260216847426          0.0473755210580311
    1066.4720600500418186          0.0472205305450454
    1067.4728940783986673          0.0434622769177811
    1068.4737281067555159          0.0378032529259122
    1069.4745621351125919          0.0320148990321273
    1070.4753961634696680          0.0270282877174923
    1071.4762301918265166          0.0230699579277983
    1072.4770642201833653          0.0200436248114102
    1073.4778982485404413          0.0177677638921227
    1074.4787322768975173          0.0160709632270644
    1075.4795663052543659          0.0148173294617171
    1076.4804003336112146          0.0139064664105002
    1077.4812343619682906          0.0132668017673683
    1078.4820683903253666          0.0128486901645615
    1079.4829024186822153          0.0126189898717588
    1080.4837364470390639          0.0125572613938161
    1081.4845704753961400          0.0126533437544433
    1082.4854045037532160          0.0129060486938802
    1083.4862385321100646          0.0133228032729191
    1084.4870725604669133          0.0139201847493544
    1085.4879065888239893          0.0147254112004239
    1086.4887406171810653          0.0157789813615568
    1087.4895746455379140          0.0171388037936979
    1088.4904086738947626          0.0188863087280232
    1089.4912427022518386          0.0211351262028467
    1090.4920767306089147          0.0240426914707037
    1091.4929107589657633          0.0278238437197682
    1092.4937447873226120          0.0327610187213958
    1093.4945788156796880          0.0391928196949088
    1094.4954128440367640          0.0474315220477863
    1095.4962468723936126          0.0575040540226752
    1096.4970809007504613          0.0685910589383191
    1097.4979149291075373          0.0783475325797424
    1098.4987489574646133          0.0832302716611874
    1099.4995829858214620          0.0809746084714817
    1100.5004170141783106          0.0728968116792825
    1101.5012510425353867          0.0625186777671324
    1102.5020850708924627          0.0526805764716283
    1103.5029190992493113          0.0445669912016919
    1104.5037531276061600          0.0382230667084310
    1105.5045871559632360          0.0332305060663036
    1106.5054211843203120          0.0291677851508252
    1107.5062552126771607          0.0258144161879809
    1108.5070892410342367          0.0230937600064667
    1109.5079232693910853          0.0209476361836085
    1110.5087572977481614          0.0192957759411637
    1111.5095913261052374          0.0180510132921980
    1112.5104253544620860          0.0171363311524317
    1113.5112593828189347          0.0164910320190901
    1114.5120934111760107          0.0160703551051351
    1115.5129274395330867          0.0158430036474761
    1116.5137614678899354          0.0157886384665121
    1117.5145954962467840          0.0158959924621298
    1118.5154295246038600          0.0161617211099314
    1119.5162635529609361          0.0165899616231342
    1120.5170975813177847          0.0171925812448440
    1121.5179316096746334          0.0179901575317050
    1122.5187656380317094          0.0190138223776887
    1123.5195996663887854          0.0203082143924310
    1124.5204336947456341          0.0219359243003723
    1125.5212677231024827          0.0239839757579209
    1126.5221017514595587          0.0265729961584031
    1127.5229357798166347          0.0298695677268459
    1128.5237698081734834          0.0341010978971319
    1129.5246038365303320          0.0395684204873392
    1130.5254378648874081          0.0466392171764767
    1131.5262718932444841          0.0556749296733901
    1132.5271059216013327          0.0667853413061504
    1133.5279399499581814          0.0792643707407138
    1134.5287739783152574          0.0908104821660470
    1135.5296080066723334          0.0975916608186070
    1136.5304420350291821          0.0966452624381223
    1137.5312760633860307          0.0887861747273914
    1138.5321100917431068          0.0777468328484035
    1139.5329441201001828          0.0669265245673687
    1140.5337781484570314          0.0579527434880850
    1141.5346121768138801          0.0511467296495562
    1142.5354462051709561          0.0462774511395197
    1143.5362802335280321          0.0429905087888582
    1144.5371142618848808          0.0409714087905797
    1145.5379482902417294          0.0399859430733443
    1146.5387823185988054          0.0398781490541309
    1147.5396163469558815          0.0405586546787315
    1148.5404503753127301          0.0419944984329420
    1149.5412844036695788          0.0442035067226688
    1150.5421184320266548          0.0472539147663586
    1151.5429524603837308          0.0512695858499697
    1152.5437864887405794          0.0564415836487390
    1153.5446205170974281          0.0630474917730781
    1154.5454545454545041          0.0714804246664448
    1155.5462885738115801          0.0822894133857727
    1156.5471226021684288          0.0962296425282998
    1157.5479566305252774          0.1143088285669501
    1158.5487906588823535          0.1377793836258834
    1159.5496246872394295          0.1679318257068594
    1160.5504587155962781          0.2053544940413932
    1161.5512927439531268          0.2481469628836651
    1162.5521267723102028          0.2892097363501044
    1163.5529608006672788          0.3157315799871381
    1164.5537948290241275          0.3163980302298627
    1165.5546288573809761          0.2921681555083833
    1166.5554628857380521          0.2553294851173173
    1167.5562969140951282          0.2183593193527563
    1168.5571309424519768          0.1877898580192285
    1169.5579649708088255          0.1653143074243249
    1170.5587989991659015          0.1504858497464573
    1171.5596330275229775          0.1423828390614917
    1172.5604670558798261          0.1402971505641198
    1173.5613010842369022          0.1439563859994994
    1174.5621351125937508          0.1535874249184894
    1175.5629691409508268          0.1699392144984810
    1176.5638031693079029          0.1942627046988974
    1177.5646371976647515          0.2281183941598004
    1178.5654712260216002          0.2726602379485255
    1179.5663052543786762          0.3267526995148729
    1180.5671392827357522          0.3835827169356423
    1181.5679733110926009          0.4283043106219424
    1182.5688073394494495          0.4439017882840457
    1183.5696413678065255          0.4255424399286500
    1184.5704753961636015          0.3847666511666386
    1185.5713094245204502          0.3363904825860028
    1186.5721434528772988          0.2884055370095315
    1187.5729774812343749          0.2438896788591691
    1188.5738115095914509          0.2049983072081523
    1189.5746455379482995          0.1732214679389767
    1190.5754795663051482          0.1487718852872541
    1191.5763135946622242          0.1309768627689290
    1192.5771476230193002          0.1189311167411882
    1193.5779816513761489          0.1118212256003946
    1194.5788156797329975          0.1088817514733661
    1195.5796497080900735          0.1090544535171636
    1196.5804837364471496          0.1105741027757023
    1197.5813177648039982          0.1111870927568470
    1198.5821517931608469          0.1094602326955626
    1199.5829858215179229          0.1055453456210521
    1200.5838198498749989          0.0998997629879927
    1201.5846538782318476          0.0922316091582792
    1202.5854879065886962          0.0825072302701265
    1203.5863219349457722          0.0718627635947556
    1204.5871559633028482          0.0617812627063418
    1205.5879899916596969          0.0531151402107121
    1206.5888240200165455          0.0460293356576440
    1207.5896580483736216          0.0403428210313105
    1208.5904920767306976          0.0357848019130849
    1209.5913261050875462          0.0321046904783215
    1210.5921601334443949          0.0291014447450102
    1211.5929941618014709          0.0266222498112348
    1212.5938281901585469          0.0245530760915676
    1213.5946622185153956          0.0228090293171483
    1214.5954962468722442          0.0213265743153821
    1215.5963302752293203          0.0200577637666415
    1216.5971643035863963          0.0189660926225279
    1217.5979983319432449          0.0180235566234272
    1218.5988323603000936          0.0172085738637054
    1219.5996663886571696          0.0165045212668450
    1220.6005004170142456          0.0158987144173551
    1221.6013344453710943          0.0153817166629565
    1222.6021684737279429          0.0149469058839060
    1223.6030025020850189          0.0145902598976217
    1224.6038365304420950          0.0143103485073348
    1225.6046705587989436          0.0141085449114931
    1226.6055045871557923          0.0139894926299853
    1227.6063386155128683          0.0139618818727581
    1228.6071726438699443          0.0140395813185256
    1229.6080066722267929          0.0142430732861059
    1230.6088407005836416          0.0146007695545162
    1231.6096747289407176          0.0151486738166058
    1232.6105087572977936          0.0159240131166969
    1233.6113427856546423          0.0169427674563998
    1234.6121768140114909          0.0181459808141076
    1235.6130108423685670          0.0193198059194408
    1236.6138448707256430          0.0200847280271188
    1237.6146788990827190          0.0201153080033229
    1238.6155129274395676          0.0194547577337637
    1239.6163469557964163          0.0184747442307569
    1240.6171809841534923          0.0175457824034304
    1241.6180150125105683          0.0168639791408251
    1242.6188490408674170          0.0164879287653178
    1243.6196830692242656          0.0164190212398006
    1244.6205170975813417          0.0166506891113465
    1245.6213511259384177          0.0171885732654512
    1246.6221851542952663          0.0180543247374772
    1247.6230191826521150          0.0192759281658492
    1248.6238532110091910          0.0208554383314205
    1249.6246872393662670          0.0227002100095520
    1250.6255212677231157          0.0245405911952555
    1251.6263552960799643          0.0259716604145280
    1252.6271893244370403          0.0267580783380720
    1253.6280233527941164          0.0271182838791225
    1254.6288573811509650          0.0275622544874961
    1255.6296914095078137          0.0285480921784940
    1256.6305254378648897          0.0303715676917715
    1257.6313594662219657          0.0332251749480124
    1258.6321934945788144          0.0372317210289097
    1259.6330275229356630          0.0423492314365902
    1260.6338615512927390          0.0481041209848640
    1261.6346955796498150          0.0532949831706080
    1262.6355296080066637          0.0562643274781595
    1263.6363636363635123          0.0561665224938382
    1264.6371976647205884          0.0538988144736527
    1265.6380316930776644          0.0512598998633292
    1266.6388657214345130          0.0496629095710590
    1267.6396997497913617          0.0498258144408364
    1268.6405337781484377          0.0520617555343288
    1269.6413678065055137          0.0565281786407634
    1270.6422018348623624          0.0632177675412584
    1271.6430358632192110          0.0716280914133924
    1272.6438698915762870          0.0801681151620179
    1273.6447039199333631          0.0859617464573867
    1274.6455379482902117          0.0863147703753799
    1275.6463719766470604          0.0811732575364001
    1276.6472060050041364          0.0731555487367074
    1277.6480400333612124          0.0651010108433468
    1278.6488740617180611          0.0585575870242888
    1279.6497080900749097          0.0539545247049466
    1280.6505421184319857          0.0512091440158149
    1281.6513761467890617          0.0501168134192092
    1282.6522101751459104          0.0505147603106955
    1283.6530442035027590          0.0523349298486504
    1284.6538782318598351          0.0556194089411083
    1285.6547122602169111          0.0605309422180980
    1286.6555462885737597          0.0673712161327843
    1287.6563803169306084          0.0766111656134322
    1288.6572143452876844          0.0889310105818953
    1289.6580483736447604          0.1052531169441051
    1290.6588824020016091          0.1267102707469024
    1291.6597164303584577          0.1543920547839422
    1292.6605504587155338          0.1885263376174827
    1293.6613844870726098          0.2266548658596790
    1294.6622185154294584          0.2612716211008219
    1295.6630525437863071          0.2804831287385713
    1296.6638865721433831          0.2759611018621378
    1297.6647206005004591          0.2513751830097889
    1298.6655546288573078          0.2186853922504242
    1299.6663886572141564          0.1881927409865989
    1300.6672226855712324          0.1646539932699794
    1301.6680567139283085          0.1487058935165865
    1302.6688907422853845          0.1386618246857199
    1303.6697247706422331          0.1313235399027077
    1304.6705587989990818          0.1230532683265484
    1305.6713928273561578          0.1119597460915980
    1306.6722268557132338          0.0990183852376287
    1307.6730608840700825          0.0864251356267044
    1308.6738949124269311          0.0756693784153638
    1309.6747289407840071          0.0671924352148078
    1310.6755629691410832          0.0608549901409149
    1311.6763969974979318          0.0563467763552940
    1312.6772310258547805          0.0533779836760172
    1313.6780650542118565          0.0517408677867589
    1314.6788990825689325          0.0513209209771612
    1315.6797331109257811          0.0520956480243446
    1316.6805671392826298          0.0541352400800457
    1317.6814011676397058          0.0576086875806287
    1318.6822351959967818          0.0627916775318524
    1319.6830692243536305          0.0700601210635925
    1320.6839032527104791          0.0798231687923391
    1321.6847372810675552          0.0922886079616799
    1322.6855713094246312          0.1068933386795198
    1323.6864053377814798          0.1214217854220785
    1324.6872393661383285          0.1317859600641595
    1325.6880733944954045          0.1342874365272320
    1326.6889074228524805          0.1291829266598277
    1327.6897414512093292          0.1205569134626609
    1328.6905754795661778          0.1127264695878367
    1329.6914095079232538          0.1081640446940120
    1330.6922435362803299          0.1078393114308145
    1331.6930775646371785          0.1121444603942900
    1332.6939115929940272          0.1215013511999450
    1333.6947456213511032          0.1366423859311891
    1334.6955796497081792          0.1586861865528927
    1335.6964136780650279          0.1889738474357288
    1336.6972477064218765          0.2283719742818608
    1337.6980817347789525          0.2754597958499395
    1338.6989157631360285          0.3233602676622671
    1339.6997497914928772          0.3577998310626849
    1340.7005838198497258          0.3631633147895480
    1341.7014178482068019          0.3360962216954587
    1342.7022518765638779          0.2890340499008083
    1343.7030859049207265          0.2380004178016595
    1344.7039199332775752          0.1925981771427297
    1345.7047539616346512          0.1557636513026564
    1346.7055879899917272          0.1270301300234314
    1347.7064220183485759          0.1048830880216978
    1348.7072560467054245          0.0877830822306972
    1349.7080900750625005          0.0744696472213243
    1350.7089241034195766          0.0639879579360039
    1351.7097581317764252          0.0556356220102150
    1352.7105921601332739          0.0489000457438555
    1353.7114261884903499          0.0434062705771944
    1354.7122602168474259          0.0388779683997648
    1355.7130942452042746          0.0351094772496712
    1356.7139282735611232          0.0319460577912881
    1357.7147623019181992          0.0292699904190925
    1358.7155963302752752          0.0269907469566066
    1359.7164303586321239          0.0250379918492245
    1360.7172643869889725          0.0233565531156229
    1361.7180984153460486          0.0219027732806451
    1362.7189324437031246          0.0206418353358791
    1363.7197664720599732          0.0195457843013517
    1364.7206005004170493          0.0185920502067083
    1365.7214345287738979          0.0177623364528426
    1366.7222685571309739          0.0170417774533622
    1367.7231025854880500          0.0164182971342082
    1368.7239366138448986          0.0158821192531397
    1369.7247706422017473          0.0154253942410570
    1370.7256046705588233          0.0150419171521127
    1371.7264386989158993          0.0147269185582990
    1372.7272727272727479          0.0144769156821831
    1373.7281067556295966          0.0142896153309334
    1374.7289407839866726          0.0141638637236087
    1375.7297748123437486          0.0140996414486911
    1376.7306088407005973          0.0140981048647435
    1377.7314428690574459          0.0141616785792535
    1378.7322768974145220          0.0142942075693898
    1379.7331109257715980          0.0145011825014164
    1380.7339449541284466          0.0147900584894844
    1381.7347789824852953          0.0151706968062314
    1382.7356130108423713          0.0156559722327334
    1383.7364470391994473          0.0162626077655062
    1384.7372810675562960          0.0170123261767483
    1385.7381150959131446          0.0179334486780184
    1386.7389491242702206          0.0190631306098406
    1387.7397831526272967          0.0204505102942024
    1388.7406171809841453          0.0221611674636413
    1389.7414512093409940          0.0242834418972134
    1390.7422852376980700          0.0269373184950341
    1391.7431192660551460          0.0302866029588368
    1392.7439532944119946          0.0345545377954662
    1393.7447873227688433          0.0400405134253107
    1394.7456213511259193          0.0471275698077720
    1395.7464553794829953          0.0562487274084317
    1396.7472894078398440          0.0677314598580372
    1397.7481234361966926          0.0813697991599435
    1398.7489574645537687          0.0956300647083858
    1399.7497914929108447          0.1070431778520888
    1400.7506255212676933          0.1114947626896750
    1401.7514595496245420          0.1077391919728004
    1402.7522935779816180          0.0988285044463061
    1403.7531276063386940          0.0891994120274252
    1404.7539616346955427          0.0818226389322230
    1405.7547956630523913          0.0779455964165869
    1406.7556296914094673          0.0779460502762465
    1407.7564637197665434          0.0819834559624044
    1408.7572977481233920          0.0902011162518700
    1409.7581317764802407          0.1024856010287121
    1410.7589658048373167          0.1176853533679589
    1411.7597998331943927          0.1324255951091158
    1412.7606338615512414          0.1409569390579663
    1413.7614678899080900          0.1383954389763097
    1414.7623019182651660          0.1252918800993521
    1415.7631359466222420          0.1069572858320325
    1416.7639699749790907          0.0886156019704962
    1417.7648040033359393          0.0728911612906308
    1418.7656380316930154          0.0603478033723297
    1419.7664720600500914          0.0506372912622182
    1420.7673060884069400          0.0431857843409860
    1421.7681401167637887          0.0374622081960008
    1422.7689741451208647          0.0330463180414532
    1423.7698081734779407          0.0296253173028013
    1424.7706422018347894          0.0269724561613173
    1425.7714762301916380          0.0249256217390219
    1426.7723102585487140          0.0233705156862866
    1427.7731442869057901          0.0222286727548612
    1428.7739783152626387          0.0214495008066506
    1429.7748123436197147          0.0210054978736384
    1430.7756463719765634          0.0208900472568217
    1431.7764804003336394          0.0211174415509661
    1432.7773144286907154          0.0217249006488429
    1433.7781484570475641          0.0227760853693415
    1434.7789824854044127          0.0243643327384908
    1435.7798165137614887          0.0266100348428864
    1436.7806505421185648          0.0296376137115051
    1437.7814845704754134          0.0335031777391383
    1438.7823185988322621          0.0380440485794644
    1439.7831526271893381          0.0426997133100327
    1440.7839866555464141          0.0465229114608399
    1441.7848206839032628          0.0486046334371492
    1442.7856547122601114          0.0487745786194392
    1443.7864887406171874          0.0479148832295975
    1444.7873227689742635          0.0473485726039288
    1445.7881567973311121          0.0479706207874227
    1446.7889908256879608          0.0498666366127116
    1447.7898248540450368          0.0522758887949619
    1448.7906588824021128          0.0539127833132643
    1449.7914929107589614          0.0539602663591209
    1450.7923269391158101          0.0529324421314512
    1451.7931609674728861          0.0521493791407387
    1452.7939949958299621          0.0525633897993275
    1453.7948290241868108          0.0541451162492012
    1454.7956630525436594          0.0558123000927767
    1455.7964970809007355          0.0558979169096122
    1456.7973311092578115          0.0533220674911278
    1457.7981651376146601          0.0485123915533360
    1458.7989991659715088          0.0429096619237101
    1459.7998331943285848          0.0377980943668045
    1460.8006672226856608          0.0338016053701135
    1461.8015012510425095          0.0310610870259170
    1462.8023352793993581          0.0295284941455749
    1463.8031693077564341          0.0291387342666696
    1464.8040033361135102          0.0298677492444225
    1465.8048373644703588          0.0317104468998663
    1466.8056713928272075          0.0345665897101903
    1467.8065054211842835          0.0379998682516788
    1468.8073394495413595          0.0409672958423182
    1469.8081734778982081          0.0420000778540184
    1470.8090075062550568          0.0402416059454642
    1471.8098415346121328          0.0362926598638267
    1472.8106755629692088          0.0315587519495066
    1473.8115095913260575          0.0271225946046038
    1474.8123436196829061          0.0234262004241877
    1475.8131776480399822          0.0205059991042154
    1476.8140116763970582          0.0182448872623495
    1477.8148457047539068          0.0165003713377300
    1478.8156797331107555          0.0151491078804135
    1479.8165137614678315          0.0140954670407965
    1480.8173477898249075          0.0132683521048274
    1481.8181818181817562          0.0126156248927836
    1482.8190158465386048          0.0120990689832435
    1483.8198498748956808          0.0116905073210972
    1484.8206839032527569          0.0113689818775347
    1485.8215179316096055          0.0111187509615339
    1486.8223519599664542          0.0109278759085927
    1487.8231859883235302          0.0107872216009052
    1488.8240200166806062          0.0106897451332164
    1489.8248540450374549          0.0106299852466900
    1490.8256880733943035          0.0106036924314747
    1491.8265221017513795          0.0106075584118822
    1492.8273561301084555          0.0106390165429956
    1493.8281901584655316          0.0106960933552603
    1494.8290241868223802          0.0107772974185875
    1495.8298582151792289          0.0108815357679548
    1496.8306922435363049          0.0110080509470907
    1497.8315262718933809          0.0111563736915073
    1498.8323603002502296          0.0113262876579059
    1499.8331943286070782          0.0115178035956076
    1500.8340283569641542          0.0117311410699133
    1501.8348623853212302          0.0119667163708204
    1502.8356964136780789          0.0122251356308674
    1503.8365304420349275          0.0125071924731333
    1504.8373644703920036          0.0128138697429143
    1505.8381984987490796          0.0131463450647392
    1506.8390325271059282          0.0135060001252350
    1507.8398665554627769          0.0138944337234281
    1508.8407005838198529          0.0143134787626046
    1509.8415346121769289          0.0147652234897400
    1510.8423686405337776          0.0152520374269770
    1511.8432026688906262          0.0157766025918994
    1512.8440366972477023          0.0163419507771338
    1513.8448707256047783          0.0169515078639341
    1514.8457047539616269          0.0176091463893930
    1515.8465387823184756          0.0183192478858026
    1516.8473728106755516          0.0190867768799570
    1517.8482068390326276          0.0199173689010842
    1518.8490408673894763          0.0208174354263142
    1519.8498748957463249          0.0217942894286250
    1520.8507089241034009          0.0228562961325640
    1521.8515429524604770          0.0240130547926921
    1522.8523769808173256          0.0252756188763382
    1523.8532110091741743          0.0266567640751751
    1524.8540450375312503          0.0281713162527929
    1525.8548790658883263          0.0298365549835944
    1526.8557130942451749          0.0316727130661699
    1527.8565471226022510          0.0337035987426705
    1528.8573811509590996          0.0359573759483161
    1529.8582151793161756          0.0384675496418474
    1530.8590492076730243          0.0412742194086883
    1531.8598832360301003          0.0444256869416290
    1532.8607172643869490          0.0479805344071100
    1533.8615512927440250          0.0520103351079498
    1534.8623853211008736          0.0566032212115466
    1535.8632193494579496          0.0618686245279902
    1536.8640533778147983          0.0679436387499693
    1537.8648874061718743          0.0750016452469018
    1538.8657214345287230          0.0832641293317291
    1539.8665554628857990          0.0930170337093265
    1540.8673894912426476          0.1046336122896089
    1541.8682235195997237          0.1186066399708998
    1542.8690575479565723          0.1355940805915343
    1543.8698915763136483          0.1564839146437572
    1544.8707256046704970          0.1824854412269551
    1545.8715596330275730          0.2152545457793814
    1546.8723936613844216          0.2570544258685880
    1547.8732276897414977          0.3109272405214989
    1548.8740617180983463          0.3807691006013173
    1549.8748957464554223          0.4709746254563988
    1550.8757297748122710          0.5848070200095216
    1551.8765638031693470          0.7199115121871841
    1552.8773978315261957          0.8599481235765594
    1553.8782318598832717          0.9680400470655979
    1554.8790658882401203          1.0000000000000000
    1555.8798999165971964          0.9412400903531125
    1556.8807339449540450          0.8222963239847446
    1557.8815679733111210          0.6883029028925347
    1558.8824020016679697          0.5684665236230805
    1559.8832360300250457          0.4728724307019711
    1560.8840700583818943          0.4012698247623513
    1561.8849040867389704          0.3500718575600734
    1562.8857381150958190          0.3155649694866792
    1563.8865721434528950          0.2949595233075776
    1564.8874061718097437          0.2865961711683755
    1565.8882402001668197          0.2899164411590950
    1566.8890742285236684          0.3054080646277240
    1567.8899082568807444          0.3345341190019637
    1568.8907422852375930          0.3794746010332199
    1569.8915763135946690          0.4421941389175628
    1570.8924103419515177          0.5218458697591359
    1571.8932443703085937          0.6095163798028017
    1572.8940783986654424          0.6826698807083408
    1573.8949124270225184          0.7101438707004960
    1574.8957464553793670          0.6754174407759367
    1575.8965804837364431          0.5934996052062458
    1576.8974145120932917          0.4952049960025008
    1577.8982485404503677          0.4033577807076450
    1578.8990825688072164          0.3269864738127091
    1579.8999165971642924          0.2666791877381437
    1580.9007506255211410          0.2199071329731996
    1581.9015846538782171          0.1836653514586459
    1582.9024186822350657          0.1553731757651605
    1583.9032527105921417          0.1330381614135310
    1584.9040867389489904          0.1151831855438210
    1585.9049207673060664          0.1007273284391580
    1586.9057547956629151          0.0888795766060591
    1587.9065888240199911          0.0790573005307208
    1588.9074228523768397          0.0708271977397631
    1589.9082568807339158          0.0638634358256287
    1590.9090909090909918          0.0579181565821871
    1591.9099249374478404          0.0528006415828104
    1592.9107589658049164          0.0483624978234105
    1593.9115929941617651          0.0444870301651407
    1594.9124270225188411          0.0410815410394882
    1595.9132610508756898          0.0380716928627950
    1596.9140950792327658          0.0353973373078485
    1597.9149291075896144          0.0330093979486999
    1598.9157631359466905          0.0308675169349920
    1599.9165971643035391          0.0289382613588626
    1600.9174311926606151          0.0271937436329242
    1601.9182652210174638          0.0256105510185302
    1602.9190992493745398          0.0241689081094569
    1603.9199332777313884          0.0228520163920851
    1604.9207673060884645          0.0216455295336095
    1605.9216013344453131          0.0205371335363761
    1606.9224353628023891          0.0195162085312694
    1607.9232693911592378          0.0185735545892905
    1608.9241034195163138          0.0177011680810574
    1609.9249374478731625          0.0168920582113925
    1610.9257714762302385          0.0161400956853142
    1611.9266055045870871          0.0154398872261039
    1612.9274395329441631          0.0147866710120248
    1613.9282735613010118          0.0141762291319538
    1614.9291075896580878          0.0136048139591939
    1615.9299416180149365          0.0130690859642254
    1616.9307756463720125          0.0125660609734095
    1617.9316096747288611          0.0120930652633261
    1618.9324437030859372          0.0116476971831898
    1619.9332777314427858          0.0112277942386289
    1620.9341117597998618          0.0108314047626314
    1621.9349457881567105          0.0104567634541381
    1622.9357798165137865          0.0101022701895793
    1623.9366138448706351          0.0097664716138626
    1624.9374478732277112          0.0094480450997083
    1625.9382819015845598          0.0091457847316056
    1626.9391159299416358          0.0088585890259631
    1627.9399499582984845          0.0085854501446011
    1628.9407839866555605          0.0083254443964264
    1629.9416180150124092          0.0080777238534241
    1630.9424520433694852          0.0078415089331609
    1631.9432860717263338          0.0076160818217811
    1632.9441201000834099          0.0074007806297378
    1633.9449541284402585          0.0071949941878677
    1634.9457881567973345          0.0069981574043732
    1635.9466221851541832          0.0068097471142446
    1636.9474562135112592          0.0066292783619541
    1637.9482902418681078          0.0064563010661743
    1638.9491242702251839          0.0062903970220195
    1639.9499582985820325          0.0061311772020888
    1640.9507923269391085          0.0059782793225375
    1641.9516263552959572          0.0058313656446584
    1642.9524603836530332          0.0056901209861225
    1643.9532944120098819          0.0055542509191907
    1644.9541284403669579          0.0054234801359486
    1645.9549624687238065          0.0052975509629899
    1646.9557964970808825          0.0051762220100375
    1647.9566305254377312          0.0050592669387901
    1648.9574645537948072          0.0049464733398462
    1649.9582985821516559          0.0048376417069313
    1650.9591326105087319          0.0047325844988502
    1651.9599666388655805          0.0046311252806429
    1652.9608006672226566          0.0045330979363443
    1653.9616346955797326          0.0044383459465650
    1654.9624687239365812          0.0043467217248255
    1655.9633027522936572          0.0042580860072154
    1656.9641367806505059          0.0041723072905046
    1657.9649708090075819          0.0040892613143351
    1658.9658048373644306          0.0040088305835618
    1659.9666388657215066          0.0039309039272019
    1660.9674728940783552          0.0038553760908026
    1661.9683069224354313          0.0037821473593480
    1662.9691409507922799          0.0037111232081023
    1663.9699749791493559          0.0036422139790359
    1664.9708090075062046          0.0035753345807015
    1665.9716430358632806          0.0035104042096277
    1666.9724770642201293          0.0034473460914743
    1667.9733110925772053          0.0033860872403554
    1668.9741451209340539          0.0033265582348780
    1669.9749791492911299          0.0032686930095770
    1670.9758131776479786          0.0032124286605401
    1671.9766472060050546          0.0031577052641261
    1672.9774812343619033          0.0031044657077706
    1673.9783152627189793          0.0030526555319637
    1674.9791492910758279          0.0030022227825595
    1675.9799833194329040          0.0029531178726469
    1676.9808173477897526          0.0029052934532807
    1677.9816513761468286          0.0028587042924216
    1678.9824854045036773          0.0028133071614958
    1679.9833194328607533          0.0027690607290248
    1680.9841534612176019          0.0027259254608266
    1681.9849874895746780          0.0026838635263234
    1682.9858215179315266          0.0026428387105330
    1683.9866555462886026          0.0026028163313490
    1684.9874895746454513          0.0025637631617494
    1685.9883236030025273          0.0025256473565983
    1686.9891576313593760          0.0024884383837334
    1687.9899916597164520          0.0024521069590507
    1688.9908256880733006          0.0024166249853257
    1689.9916597164303766          0.0023819654945236
    1690.9924937447872253          0.0023481025933734
    1691.9933277731443013          0.0023150114119943
    1692.9941618015011500          0.0022826680553812
    1693.9949958298582260          0.0022510495575657
    1694.9958298582150746          0.0022201338382869
    1695.9966638865721507          0.0021898996620139
    1696.9974979149289993          0.0021603265991752
    1697.9983319432860753          0.0021313949894593
    1698.9991659716429240          0.0021030859070610
    1700.0000000000000000          0.0020753811277550
